sample_index,time_s,voltage_mV
0,0.0,2.42886
1,0.002,2.42886
2,0.004,2.42564
3,0.006,2.43048
4,0.008,2.41758
5,0.01,2.41033
6,0.012,2.41275
7,0.014,2.41839
8,0.016,2.42806
9,0.018,2.40549
10,0.02,2.42403
11,0.022,2.41678
12,0.024,2.40952
13,0.026,2.40469
14,0.028,2.40711
15,0.03,2.41275
16,0.032,2.41839
17,0.034,2.42806
18,0.036,2.43128
19,0.038,2.43209
20,0.04,2.42
21,0.042,2.43128
22,0.044,2.42886
23,0.046,2.43692
24,0.048,2.43853
25,0.05,2.42161
26,0.052,2.41839
27,0.054,2.41597
28,0.056,2.40952
29,0.058,2.41839
30,0.06,2.41436
31,0.062,2.41597
32,0.064,2.4063
33,0.066,2.40549
34,0.068,2.41758
35,0.07,2.41275
36,0.072,2.40872
37,0.074,2.40711
38,0.076,2.41516
39,0.078,2.40872
40,0.08,2.41597
41,0.082,2.41839
42,0.084,2.41839
43,0.086,2.41839
44,0.088,2.42725
45,0.09,2.42322
46,0.092,2.43048
47,0.094,2.42564
48,0.096,2.43048
49,0.098,2.42645
50,0.1,2.43128
51,0.102,2.42564
52,0.104,2.41919
53,0.106,2.42161
54,0.108,2.43128
55,0.11,2.41597
56,0.112,2.41033
57,0.114,2.41033
58,0.116,2.41597
59,0.118,2.42081
60,0.12,2.42081
61,0.122,2.42564
62,0.124,2.42161
63,0.126,2.43209
64,0.128,2.43289
65,0.13,2.43773
66,0.132,2.43451
67,0.134,2.43773
68,0.136,2.43934
69,0.138,2.43451
70,0.14,2.41033
71,0.142,2.4063
72,0.144,2.41597
73,0.146,2.41839
74,0.148,2.42403
75,0.15,2.41758
76,0.152,2.42484
77,0.154,2.41597
78,0.156,2.41516
79,0.158,2.41839
80,0.16,2.41597
81,0.162,2.42081
82,0.164,2.42081
83,0.166,2.40711
84,0.168,2.41033
85,0.17,2.42
86,0.172,2.41033
87,0.174,2.40791
88,0.176,2.41597
89,0.178,2.41194
90,0.18,2.42564
91,0.182,2.41597
92,0.184,2.42161
93,0.186,2.42645
94,0.188,2.42161
95,0.19,2.43451
96,0.192,2.43209
97,0.194,2.42806
98,0.196,2.43128
99,0.198,2.42725
100,0.2,2.43128
101,0.202,2.4337
102,0.204,2.42
103,0.206,2.41919
104,0.208,2.42725
105,0.21,2.41114
106,0.212,2.42081
107,0.214,2.42645
108,0.216,2.40711
109,0.218,2.40549
110,0.22,2.41758
111,0.222,2.41919
112,0.224,2.41516
113,0.226,2.41516
114,0.228,2.42
115,0.23,2.42564
116,0.232,2.41194
117,0.234,2.43048
118,0.236,2.43531
119,0.238,2.42161
120,0.24,2.43451
121,0.242,2.43128
122,0.244,2.43451
123,0.246,2.39744
124,0.248,2.42886
125,0.25,2.42806
126,0.252,2.42161
127,0.254,2.41033
128,0.256,2.41436
129,0.258,2.42161
130,0.26,2.42
131,0.262,2.41275
132,0.264,2.41355
133,0.266,2.41275
134,0.268,2.42081
135,0.27,2.41516
136,0.272,2.41194
137,0.274,2.40711
138,0.276,2.4063
139,0.278,2.40388
140,0.28,2.41678
141,0.282,2.40711
142,0.284,2.42
143,0.286,2.41758
144,0.288,2.41758
145,0.29,2.42484
146,0.292,2.42161
147,0.294,2.43853
148,0.296,2.42725
149,0.298,2.41516
150,0.3,2.41355
151,0.302,2.41919
152,0.304,2.40872
153,0.306,2.40711
154,0.308,2.41758
155,0.31,2.42242
156,0.312,2.41033
157,0.314,2.42242
158,0.316,2.41355
159,0.318,2.40711
160,0.32,2.39985
161,0.322,2.41436
162,0.324,2.40872
163,0.326,2.42242
164,0.328,2.41919
165,0.33,2.42564
166,0.332,2.41678
167,0.334,2.42322
168,0.336,2.42564
169,0.338,2.43209
170,0.34,2.44256
171,0.342,2.44337
172,0.344,2.43934
173,0.346,2.44095
174,0.348,2.43853
175,0.35,2.44659
176,0.352,2.45062
177,0.354,2.44256
178,0.356,2.44418
179,0.358,2.43209
180,0.36,2.44015
181,0.362,2.44821
182,0.364,2.45385
183,0.366,2.45223
184,0.368,2.44418
185,0.37,2.44982
186,0.372,2.44095
187,0.374,2.44095
188,0.376,2.44015
189,0.378,2.44176
190,0.38,2.45143
191,0.382,2.44821
192,0.384,2.44821
193,0.386,2.44982
194,0.388,2.46352
195,0.39,2.45788
196,0.392,2.4611
197,0.394,2.46432
198,0.396,2.4619
199,0.398,2.45868
200,0.4,2.45385
201,0.402,2.44821
202,0.404,2.45385
203,0.406,2.45385
204,0.408,2.45546
205,0.41,2.45385
206,0.412,2.43612
207,0.414,2.44015
208,0.416,2.44821
209,0.418,2.45546
210,0.42,2.45626
211,0.422,2.45143
212,0.424,2.46996
213,0.426,2.46352
214,0.428,2.4748
215,0.43,2.49172
216,0.432,2.50059
217,0.434,2.50703
218,0.436,2.52234
219,0.438,2.52557
220,0.44,2.52637
221,0.442,2.7504
222,0.444,2.76007
223,0.446,2.74718
224,0.448,2.75121
225,0.45,2.76168
226,0.452,2.75927
227,0.454,2.75685
228,0.456,2.75201
229,0.458,2.74637
230,0.46,2.7633
231,0.462,2.74557
232,0.464,2.75282
233,0.466,2.75685
234,0.468,2.75443
235,0.47,2.7633
236,0.472,2.76249
237,0.474,2.74476
238,0.476,2.75766
239,0.478,2.75766
240,0.48,2.75846
241,0.482,2.76733
242,0.484,2.77377
243,0.486,2.76894
244,0.488,2.7778
245,0.49,2.77538
246,0.492,2.78103
247,0.494,2.78103
248,0.496,2.77619
249,0.498,2.7907
250,0.5,2.79634
251,0.502,2.78264
252,0.504,2.78103
253,0.506,2.78908
254,0.508,2.77941
255,0.51,2.77941
256,0.512,2.76733
257,0.514,2.77861
258,0.516,2.77941
259,0.518,2.78022
260,0.52,2.77861
261,0.522,2.78828
262,0.524,2.78022
263,0.526,2.79392
264,0.528,2.79231
265,0.53,2.82051
266,0.532,2.79392
267,0.534,2.79231
268,0.536,2.79231
269,0.538,2.78828
270,0.54,2.79553
271,0.542,2.79956
272,0.544,2.79714
273,0.546,2.79956
274,0.548,2.81407
275,0.55,2.80842
276,0.552,2.8052
277,0.554,2.80198
278,0.556,2.79875
279,0.558,2.79231
280,0.56,2.7915
281,0.562,2.78908
282,0.564,2.79231
283,0.566,2.777
284,0.568,2.77377
285,0.57,2.77619
286,0.572,2.77136
287,0.574,2.7641
288,0.576,2.76813
289,0.578,2.76571
290,0.58,2.75846
291,0.582,2.7641
292,0.584,2.76249
293,0.586,2.76652
294,0.588,2.75363
295,0.59,2.75604
296,0.592,2.75363
297,0.594,2.75121
298,0.596,2.75524
299,0.598,2.75363
300,0.6,2.75121
301,0.602,2.75121
302,0.604,2.73348
303,0.606,2.7359
304,0.608,2.73348
305,0.61,2.73106
306,0.612,2.71978
307,0.614,2.69238
308,0.616,2.71092
309,0.618,2.71414
310,0.62,2.70366
311,0.622,2.69641
312,0.624,2.70286
313,0.626,2.68029
314,0.628,2.67626
315,0.63,2.6811
316,0.632,2.6811
317,0.634,2.67546
318,0.636,2.67949
319,0.638,2.67304
320,0.64,2.67385
321,0.642,2.66659
322,0.644,2.65853
323,0.646,2.66015
324,0.648,2.64242
325,0.65,2.64484
326,0.652,2.64484
327,0.654,2.63758
328,0.656,2.64322
329,0.658,2.62791
330,0.66,2.61421
331,0.662,2.61502
332,0.664,2.60293
333,0.666,2.60374
334,0.668,2.59004
335,0.67,2.59326
336,0.672,2.5852
337,0.674,2.59084
338,0.676,2.60212
339,0.678,2.58923
340,0.68,2.58762
341,0.682,2.5852
342,0.684,2.5707
343,0.686,2.56586
344,0.688,2.56183
345,0.69,2.557
346,0.692,2.56022
347,0.694,2.56505
348,0.696,2.557
349,0.698,2.557
350,0.7,2.55055
351,0.702,2.55136
352,0.704,2.55619
353,0.706,2.53927
354,0.708,2.5304
355,0.71,2.52879
356,0.712,2.5304
357,0.714,2.5304
358,0.716,2.53443
359,0.718,2.503
360,0.72,2.50784
361,0.722,2.50542
362,0.724,2.49656
363,0.726,2.50462
364,0.728,2.49333
365,0.73,2.49333
366,0.732,2.49172
367,0.734,2.49011
368,0.736,2.48366
369,0.738,2.49011
370,0.74,2.47963
371,0.742,2.48205
372,0.744,2.48366
373,0.746,2.50139
374,0.748,2.47158
375,0.75,2.47641
376,0.752,2.46513
377,0.754,2.47077
378,0.756,2.46513
379,0.758,2.45868
380,0.76,2.45626
381,0.762,2.45143
382,0.764,2.44821
383,0.766,2.44821
384,0.768,2.44982
385,0.77,2.44659
386,0.772,2.43612
387,0.774,2.4337
388,0.776,2.44659
389,0.778,2.42161
390,0.78,2.44498
391,0.782,2.4474
392,0.784,2.4474
393,0.786,2.44982
394,0.788,2.44982
395,0.79,2.44901
396,0.792,2.45304
397,0.794,2.44821
398,0.796,2.45143
399,0.798,2.45062
400,0.8,2.44256
401,0.802,2.43853
402,0.804,2.45223
403,0.806,2.45143
404,0.808,2.43612
405,0.81,2.45385
406,0.812,2.44498
407,0.814,2.44337
408,0.816,2.45062
409,0.818,2.44095
410,0.82,2.44256
411,0.822,2.43612
412,0.824,2.43289
413,0.826,2.43209
414,0.828,2.44498
415,0.83,2.44982
416,0.832,2.43451
417,0.834,2.42806
418,0.836,2.45546
419,0.838,2.45304
420,0.84,2.42886
421,0.842,2.45385
422,0.844,2.45143
423,0.846,2.45868
424,0.848,2.44579
425,0.85,2.45385
426,0.852,2.45465
427,0.854,2.45304
428,0.856,2.44901
429,0.858,2.43853
430,0.86,2.44095
431,0.862,2.43451
432,0.864,2.44176
433,0.866,2.44176
434,0.868,2.43612
435,0.87,2.45304
436,0.872,2.43451
437,0.874,2.43612
438,0.876,2.44015
439,0.878,2.42564
440,0.88,2.43531
441,0.882,2.43209
442,0.884,2.43209
443,0.886,2.43289
444,0.888,2.43451
445,0.89,2.44579
446,0.892,2.44579
447,0.894,2.43612
448,0.896,2.44418
449,0.898,2.44579
450,0.9,2.43934
451,0.902,2.43451
452,0.904,2.43773
453,0.906,2.44176
454,0.908,2.43773
455,0.91,2.41919
456,0.912,2.41436
457,0.914,2.43048
458,0.916,2.43048
459,0.918,2.41678
460,0.92,2.42725
461,0.922,2.43209
462,0.924,2.44498
463,0.926,2.42564
464,0.928,2.44498
465,0.93,2.43934
466,0.932,2.41839
467,0.934,2.43209
468,0.936,2.46513
469,0.938,2.47399
470,0.94,2.45868
471,0.942,2.45385
472,0.944,2.45304
473,0.946,2.44579
474,0.948,2.43612
475,0.95,2.44418
476,0.952,2.44821
477,0.954,2.43934
478,0.956,2.43289
479,0.958,2.43048
480,0.96,2.44256
481,0.962,2.45385
482,0.964,2.44821
483,0.966,2.43451
484,0.968,2.45385
485,0.97,2.44337
486,0.972,2.43048
487,0.974,2.43048
488,0.976,2.44256
489,0.978,2.44418
490,0.98,2.4474
491,0.982,2.44659
492,0.984,2.45143
493,0.986,2.45626
494,0.988,2.42806
495,0.99,2.43612
496,0.992,2.44256
497,0.994,2.45143
498,0.996,2.46593
499,0.998,2.44982
500,1.0,2.44901
501,1.002,2.44901
502,1.004,2.45304
503,1.006,2.44982
504,1.008,2.43209
505,1.01,2.42484
506,1.012,2.44095
507,1.014,2.45304
508,1.016,2.42806
509,1.018,2.42886
510,1.02,2.42564
511,1.022,2.4063
512,1.024,2.40388
513,1.026,2.40872
514,1.028,2.4063
515,1.03,2.41114
516,1.032,2.42403
517,1.034,2.44982
518,1.036,2.45385
519,1.038,2.41516
520,1.04,2.42484
521,1.042,2.42403
522,1.044,2.44579
523,1.046,2.43692
524,1.048,2.45223
525,1.05,2.40711
526,1.052,2.39099
527,1.054,2.42806
528,1.056,2.44418
529,1.058,2.43289
530,1.06,2.42
531,1.062,2.39985
532,1.064,2.42806
533,1.066,2.4474
534,1.068,2.42081
535,1.07,2.41033
536,1.072,2.39905
537,1.074,2.40549
538,1.076,2.42081
539,1.078,2.44015
540,1.08,2.45868
541,1.082,2.44821
542,1.084,2.45788
543,1.086,2.42806
544,1.088,2.43209
545,1.09,2.42564
546,1.092,2.42806
547,1.094,2.45788
548,1.096,2.46593
549,1.098,2.42161
550,1.1,2.42161
551,1.102,2.44256
552,1.104,2.43853
553,1.106,2.43451
554,1.108,2.43048
555,1.11,2.43048
556,1.112,2.43048
557,1.114,2.41275
558,1.116,2.39824
559,1.118,2.40952
560,1.12,2.40066
561,1.122,2.40308
562,1.124,2.41033
563,1.126,2.41597
564,1.128,2.40952
565,1.13,2.41516
566,1.132,2.40872
567,1.134,2.40872
568,1.136,2.42161
569,1.138,2.41275
570,1.14,2.43451
571,1.142,2.41839
572,1.144,2.41516
573,1.146,2.42081
574,1.148,2.42725
575,1.15,2.44659
576,1.152,2.43451
577,1.154,2.43048
578,1.156,2.44095
579,1.158,2.41516
580,1.16,2.40872
581,1.162,2.40952
582,1.164,2.40227
583,1.166,2.40549
584,1.168,2.39744
585,1.17,2.39905
586,1.172,2.38938
587,1.174,2.41275
588,1.176,2.40952
589,1.178,2.38857
590,1.18,2.40147
591,1.182,2.41033
592,1.184,2.41678
593,1.186,2.4063
594,1.188,2.39744
595,1.19,2.4063
596,1.192,2.41758
597,1.194,2.42
598,1.196,2.42
599,1.198,2.40469
600,1.2,2.40469
601,1.202,2.40066
602,1.204,2.40549
603,1.206,2.41275
604,1.208,2.40872
605,1.21,2.41033
606,1.212,2.41839
607,1.214,2.42403
608,1.216,2.39905
609,1.218,2.40549
610,1.22,2.41919
611,1.222,2.40711
612,1.224,2.40872
613,1.226,2.4063
614,1.228,2.42161
615,1.23,2.41033
616,1.232,2.41919
617,1.234,2.41033
618,1.236,2.41033
619,1.238,2.42081
620,1.24,2.42886
621,1.242,2.41919
622,1.244,2.42081
623,1.246,2.41919
624,1.248,2.42081
625,1.25,2.42564
626,1.252,2.42564
627,1.254,2.42161
628,1.256,2.42081
629,1.258,2.42484
630,1.26,2.41194
631,1.262,2.39663
632,1.264,2.40066
633,1.266,2.40227
634,1.268,2.40227
635,1.27,2.39905
636,1.272,2.39502
637,1.274,2.40308
638,1.276,2.3926
639,1.278,2.40549
640,1.28,2.39421
641,1.282,2.40147
642,1.284,2.40147
643,1.286,2.40227
644,1.288,2.41678
645,1.29,2.41516
646,1.292,2.41114
647,1.294,2.41275
648,1.296,2.42
649,1.298,2.42161
650,1.3,2.42645
651,1.302,2.42725
652,1.304,2.42
653,1.306,2.41597
654,1.308,2.39421
655,1.31,2.40227
656,1.312,2.4063
657,1.314,2.41597
658,1.316,2.40469
659,1.318,2.40711
660,1.32,2.40227
661,1.322,2.40952
662,1.324,2.4063
663,1.326,2.41033
664,1.328,2.40711
665,1.33,2.40469
666,1.332,2.40308
667,1.334,2.41033
668,1.336,2.4063
669,1.338,2.41839
670,1.34,2.41033
671,1.342,2.41678
672,1.344,2.41919
673,1.346,2.41839
674,1.348,2.41114
675,1.35,2.42
676,1.352,2.43128
677,1.354,2.42161
678,1.356,2.41516
679,1.358,2.42081
680,1.36,2.41758
681,1.362,2.41919
682,1.364,2.41194
683,1.366,2.4063
684,1.368,2.40791
685,1.37,2.40388
686,1.372,2.40872
687,1.374,2.40147
688,1.376,2.40227
689,1.378,2.40872
690,1.38,2.41275
691,1.382,2.41194
692,1.384,2.40872
693,1.386,2.41355
694,1.388,2.40872
695,1.39,2.41275
696,1.392,2.40711
697,1.394,2.40952
698,1.396,2.41597
699,1.398,2.41516
700,1.4,2.40711
701,1.402,2.41919
702,1.404,2.43451
703,1.406,2.43209
704,1.408,2.43451
705,1.41,2.42242
706,1.412,2.40872
707,1.414,2.41114
708,1.416,2.39905
709,1.418,2.39985
710,1.42,2.40227
711,1.422,2.38857
712,1.424,2.38696
713,1.426,2.38535
714,1.428,2.38615
715,1.43,2.38696
716,1.432,2.37326
717,1.434,2.38938
718,1.436,2.38454
719,1.438,2.39099
720,1.44,2.39421
721,1.442,2.4063
722,1.444,2.40711
723,1.446,2.40711
724,1.448,2.39905
725,1.45,2.40952
726,1.452,2.41033
727,1.454,2.40952
728,1.456,2.41275
729,1.458,2.41839
730,1.46,2.40791
731,1.462,2.4063
732,1.464,2.40791
733,1.466,2.39824
734,1.468,2.39341
735,1.47,2.38535
736,1.472,2.39421
737,1.474,2.38293
738,1.476,2.39744
739,1.478,2.37971
740,1.48,2.38696
741,1.482,2.39421
742,1.484,2.39663
743,1.486,2.40388
744,1.488,2.4063
745,1.49,2.40066
746,1.492,2.40227
747,1.494,2.42081
748,1.496,2.41919
749,1.498,2.42645
750,1.5,2.42242
751,1.502,2.42564
752,1.504,2.44418
753,1.506,2.44095
754,1.508,2.43209
755,1.51,2.42806
756,1.512,2.43289
757,1.514,2.43531
758,1.516,2.42161
759,1.518,2.42403
760,1.52,2.42645
761,1.522,2.41758
762,1.524,2.41275
763,1.526,2.40711
764,1.528,2.40549
765,1.53,2.41436
766,1.532,2.40872
767,1.534,2.41678
768,1.536,2.41516
769,1.538,2.42161
770,1.54,2.43128
771,1.542,2.41839
772,1.544,2.40872
773,1.546,2.42
774,1.548,2.40549
775,1.55,2.40469
776,1.552,2.42403
777,1.554,2.42564
778,1.556,2.43048
779,1.558,2.42564
780,1.56,2.43451
781,1.562,2.42484
782,1.564,2.42403
783,1.566,2.42161
784,1.568,2.42564
785,1.57,2.42161
786,1.572,2.41597
787,1.574,2.40952
788,1.576,2.42
789,1.578,2.42645
790,1.58,2.42081
791,1.582,2.43209
792,1.584,2.41919
793,1.586,2.41758
794,1.588,2.41919
795,1.59,2.42725
796,1.592,2.42242
797,1.594,2.42806
798,1.596,2.42725
799,1.598,2.43692
800,1.6,2.43128
801,1.602,2.4474
802,1.604,2.44659
803,1.606,2.4474
804,1.608,2.44498
805,1.61,2.43692
806,1.612,2.43209
807,1.614,2.42564
808,1.616,2.42806
809,1.618,2.43128
810,1.62,2.43531
811,1.622,2.44659
812,1.624,2.43934
813,1.626,2.43612
814,1.628,2.43853
815,1.63,2.44176
816,1.632,2.44498
817,1.634,2.44982
818,1.636,2.45788
819,1.638,2.45304
820,1.64,2.46674
821,1.642,2.46916
822,1.644,2.46835
823,1.646,2.45788
824,1.648,2.46916
825,1.65,2.47077
826,1.652,2.4893
827,1.654,2.48366
828,1.656,2.47883
829,1.658,2.48286
830,1.66,2.46755
831,1.662,2.46916
832,1.664,2.45062
833,1.666,2.45223
834,1.668,2.45385
835,1.67,2.46432
836,1.672,2.45546
837,1.674,2.45304
838,1.676,2.46755
839,1.678,2.45223
840,1.68,2.45385
841,1.682,2.45304
842,1.684,2.45385
843,1.686,2.45707
844,1.688,2.45626
845,1.69,2.46674
846,1.692,2.45868
847,1.694,2.46432
848,1.696,2.47883
849,1.698,2.47802
850,1.7,2.4748
851,1.702,2.47399
852,1.704,2.48125
853,1.706,2.46996
854,1.708,2.47802
855,1.71,2.48366
856,1.712,2.49736
857,1.714,2.50623
858,1.716,2.50139
859,1.718,2.50623
860,1.72,2.52718
861,1.722,2.54491
862,1.724,2.54249
863,1.726,2.55055
864,1.728,2.57392
865,1.73,2.56103
866,1.732,2.53766
867,1.734,2.53846
868,1.736,2.55458
869,1.738,2.5441
870,1.74,2.52154
871,1.742,2.5159
872,1.744,2.53443
873,1.746,2.53846
874,1.748,2.52879
875,1.75,2.51751
876,1.752,2.53846
877,1.754,2.52396
878,1.756,2.55619
879,1.758,2.56586
880,1.76,2.53604
881,1.762,2.52879
882,1.764,2.52718
883,1.766,2.52799
884,1.768,2.52718
885,1.77,2.53121
886,1.772,2.52476
887,1.774,2.50945
888,1.776,2.50542
889,1.778,2.51509
890,1.78,2.51106
891,1.782,2.51348
892,1.784,2.52234
893,1.786,2.5304
894,1.788,2.51832
895,1.79,2.49656
896,1.792,2.49253
897,1.794,2.49656
898,1.796,2.5159
899,1.798,2.52396
900,1.8,2.503
901,1.802,2.50703
902,1.804,2.51267
903,1.806,2.503
904,1.808,2.50462
905,1.81,2.49092
906,1.812,2.47641
907,1.814,2.47319
908,1.816,2.48366
909,1.818,2.4893
910,1.82,2.46593
911,1.822,2.46352
912,1.824,2.44579
913,1.826,2.43692
914,1.828,2.43853
915,1.83,2.44659
916,1.832,2.44337
917,1.834,2.42806
918,1.836,2.43773
919,1.838,2.44579
920,1.84,2.44095
921,1.842,2.44498
922,1.844,2.44982
923,1.846,2.45062
924,1.848,2.44095
925,1.85,2.44015
926,1.852,2.44579
927,1.854,2.43289
928,1.856,2.42322
929,1.858,2.42725
930,1.86,2.41758
931,1.862,2.42242
932,1.864,2.39905
933,1.866,2.39421
934,1.868,2.41919
935,1.87,2.41033
936,1.872,2.39018
937,1.874,2.38938
938,1.876,2.3926
939,1.878,2.38293
940,1.88,2.39099
941,1.882,2.3926
942,1.884,2.39179
943,1.886,2.38938
944,1.888,2.37648
945,1.89,2.37648
946,1.892,2.39018
947,1.894,2.38696
948,1.896,2.37407
949,1.898,2.34667
950,1.9,2.38615
951,1.902,2.38374
952,1.904,2.38777
953,1.906,2.3926
954,1.908,2.39421
955,1.91,2.39582
956,1.912,2.3926
957,1.914,2.3789
958,1.916,2.38857
959,1.918,2.37971
960,1.92,2.38696
961,1.922,2.37407
962,1.924,2.37004
963,1.926,2.36117
964,1.928,2.3652
965,1.93,2.36923
966,1.932,2.37326
967,1.934,2.36681
968,1.936,2.36762
969,1.938,2.36762
970,1.94,2.37245
971,1.942,2.37004
972,1.944,2.37326
973,1.946,2.37326
974,1.948,2.37084
975,1.95,2.38051
976,1.952,2.3789
977,1.954,2.37729
978,1.956,2.38051
979,1.958,2.38696
980,1.96,2.38132
981,1.962,2.38696
982,1.964,2.38293
983,1.966,2.37729
984,1.968,2.38615
985,1.97,2.37971
986,1.972,2.37165
987,1.974,2.37487
988,1.976,2.37729
989,1.978,2.38535
990,1.98,2.38132
991,1.982,2.37407
992,1.984,2.36842
993,1.986,2.38535
994,1.988,2.37165
995,1.99,2.36842
996,1.992,2.3781
997,1.994,2.38051
998,1.996,2.38615
999,1.998,2.38777
1000,2.0,2.38777
1001,2.002,2.38938
1002,2.004,2.38293
1003,2.006,2.36359
1004,2.008,2.38293
1005,2.01,2.38938
1006,2.012,2.37487
1007,2.014,2.38374
1008,2.016,2.37165
1009,2.018,2.37568
1010,2.02,2.36842
1011,2.022,2.36923
1012,2.024,2.36842
1013,2.026,2.37084
1014,2.028,2.36278
1015,2.03,2.35956
1016,2.032,2.34747
1017,2.034,2.35795
1018,2.036,2.34747
1019,2.038,2.34586
1020,2.04,2.34505
1021,2.042,2.3515
1022,2.044,2.35392
1023,2.046,2.35473
1024,2.048,2.35392
1025,2.05,2.36198
1026,2.052,2.36681
1027,2.054,2.36923
1028,2.056,2.38696
1029,2.058,2.38777
1030,2.06,2.36681
1031,2.062,2.37407
1032,2.064,2.37568
1033,2.066,2.36037
1034,2.068,2.36601
1035,2.07,2.36601
1036,2.072,2.37407
1037,2.074,2.37729
1038,2.076,2.40227
1039,2.078,2.39018
1040,2.08,2.39099
1041,2.082,2.38696
1042,2.084,2.38374
1043,2.086,2.38938
1044,2.088,2.3926
1045,2.09,2.38938
1046,2.092,2.38615
1047,2.094,2.39582
1048,2.096,2.38777
1049,2.098,2.40147
1050,2.1,2.39582
1051,2.102,2.40469
1052,2.104,2.41194
1053,2.106,2.40227
1054,2.108,2.4063
1055,2.11,2.40308
1056,2.112,2.41033
1057,2.114,2.41436
1058,2.116,2.40469
1059,2.118,2.41033
1060,2.12,2.42564
1061,2.122,2.42564
1062,2.124,2.41033
1063,2.126,2.41678
1064,2.128,2.41597
1065,2.13,2.41758
1066,2.132,2.42081
1067,2.134,2.4337
1068,2.136,2.43048
1069,2.138,2.45465
1070,2.14,2.47319
1071,2.142,2.49736
1072,2.144,2.53282
1073,2.146,2.56022
1074,2.148,2.58601
1075,2.15,2.60857
1076,2.152,2.66498
1077,2.154,2.6811
1078,2.156,2.71817
1079,2.158,2.76733
1080,2.16,2.8181
1081,2.162,2.87692
1082,2.164,2.93575
1083,2.166,3.00908
1084,2.168,3.07033
1085,2.17,3.11949
1086,2.172,3.18718
1087,2.174,3.25326
1088,2.176,3.29919
1089,2.178,3.3
1090,2.18,3.3
1091,2.182,3.3
1092,2.184,3.3
1093,2.186,3.3
1094,2.188,3.3
1095,2.19,3.3
1096,2.192,3.3
1097,2.194,3.3
1098,2.196,3.3
1099,2.198,3.3
1100,2.2,3.28952
1101,2.202,3.25407
1102,2.204,3.24037
1103,2.206,3.15172
1104,2.208,3.03165
1105,2.21,2.91802
1106,2.212,2.78103
1107,2.214,2.66498
1108,2.216,2.5707
1109,2.218,2.46432
1110,2.22,2.38454
1111,2.222,2.27172
1112,2.224,2.15729
1113,2.226,2.08637
1114,2.228,2.04527
1115,2.23,1.98161
1116,2.232,1.90667
1117,2.234,1.83656
1118,2.236,1.81641
1119,2.238,1.79788
1120,2.24,1.76967
1121,2.242,1.76967
1122,2.244,1.74952
1123,2.246,1.72132
1124,2.248,1.66733
1125,2.25,1.63831
1126,2.252,1.61736
1127,2.254,1.63267
1128,2.256,1.62784
1129,2.258,1.64799
1130,2.26,1.68908
1131,2.262,1.71407
1132,2.264,1.7874
1133,2.266,1.85106
1134,2.268,1.90989
1135,2.27,1.9526
1136,2.272,1.99773
1137,2.274,2.05253
1138,2.276,2.09282
1139,2.278,2.1315
1140,2.28,2.17744
1141,2.282,2.20645
1142,2.284,2.23465
1143,2.286,2.27092
1144,2.288,2.32249
1145,2.29,2.38938
1146,2.292,2.43128
1147,2.294,2.45707
1148,2.296,2.46755
1149,2.298,2.47319
1150,2.3,2.46432
1151,2.302,2.47077
1152,2.304,2.47722
1153,2.306,2.48286
1154,2.308,2.48205
1155,2.31,2.49011
1156,2.312,2.49011
1157,2.314,2.50059
1158,2.316,2.48608
1159,2.318,2.4893
1160,2.32,2.48286
1161,2.322,2.47963
1162,2.324,2.49253
1163,2.326,2.49333
1164,2.328,2.48447
1165,2.33,2.47722
1166,2.332,2.47883
1167,2.334,2.4748
1168,2.336,2.48366
1169,2.338,2.49333
1170,2.34,2.49172
1171,2.342,2.48608
1172,2.344,2.47319
1173,2.346,2.48205
1174,2.348,2.48125
1175,2.35,2.49656
1176,2.352,2.49253
1177,2.354,2.49736
1178,2.356,2.48447
1179,2.358,2.50059
1180,2.36,2.48366
1181,2.362,2.49172
1182,2.364,2.4885
1183,2.366,2.48769
1184,2.368,2.49253
1185,2.37,2.50139
1186,2.372,2.49092
1187,2.374,2.48689
1188,2.376,2.46835
1189,2.378,2.47238
1190,2.38,2.47077
1191,2.382,2.47641
1192,2.384,2.46755
1193,2.386,2.47158
1194,2.388,2.49253
1195,2.39,2.49253
1196,2.392,2.49253
1197,2.394,2.5022
1198,2.396,2.50542
1199,2.398,2.50945
1200,2.4,2.51348
1201,2.402,2.51187
1202,2.404,2.50703
1203,2.406,2.52557
1204,2.408,2.53846
1205,2.41,2.52879
1206,2.412,2.5159
1207,2.414,2.51751
1208,2.416,2.5159
1209,2.418,2.50703
1210,2.42,2.51106
1211,2.422,2.52234
1212,2.424,2.51267
1213,2.426,2.52154
1214,2.428,2.51832
1215,2.43,2.5159
1216,2.432,2.52799
1217,2.434,2.52396
1218,2.436,2.52879
1219,2.438,2.5304
1220,2.44,2.52234
1221,2.442,2.53201
1222,2.444,2.53524
1223,2.446,2.53282
1224,2.448,2.5433
1225,2.45,2.53685
1226,2.452,2.52637
1227,2.454,2.54974
1228,2.456,2.53524
1229,2.458,2.53443
1230,2.46,2.53604
1231,2.462,2.53927
1232,2.464,2.52476
1233,2.466,2.51912
1234,2.468,2.52476
1235,2.47,2.52637
1236,2.472,2.52154
1237,2.474,2.52557
1238,2.476,2.52396
1239,2.478,2.52234
1240,2.48,2.50703
1241,2.482,2.51348
1242,2.484,2.5167
1243,2.486,2.52476
1244,2.488,2.52073
1245,2.49,2.52879
1246,2.492,2.53685
1247,2.494,2.53443
1248,2.496,2.53927
1249,2.498,2.53846
1250,2.5,2.5441
1251,2.502,2.53766
1252,2.504,2.55297
1253,2.506,2.5433
1254,2.508,2.54733
1255,2.51,2.54571
1256,2.512,2.54571
1257,2.514,2.54249
1258,2.516,2.54491
1259,2.518,2.53443
1260,2.52,2.54088
1261,2.522,2.54088
1262,2.524,2.55216
1263,2.526,2.54169
1264,2.528,2.54894
1265,2.53,2.5578
1266,2.532,2.54813
1267,2.534,2.54249
1268,2.536,2.53927
1269,2.538,2.557
1270,2.54,2.5578
1271,2.542,2.557
1272,2.544,2.55458
1273,2.546,2.56505
1274,2.548,2.57473
1275,2.55,2.56264
1276,2.552,2.56425
1277,2.554,2.56022
1278,2.556,2.55216
1279,2.558,2.54974
1280,2.56,2.56183
1281,2.562,2.56586
1282,2.564,2.56505
1283,2.566,2.56344
1284,2.568,2.56183
1285,2.57,2.55619
1286,2.572,2.57231
1287,2.574,2.5707
1288,2.576,2.56989
1289,2.578,2.5852
1290,2.58,2.57634
1291,2.582,2.58117
1292,2.584,2.57473
1293,2.586,2.58037
1294,2.588,2.57795
1295,2.59,2.57473
1296,2.592,2.58198
1297,2.594,2.59407
1298,2.596,2.60454
1299,2.598,2.60293
1300,2.6,2.59971
1301,2.602,2.60777
1302,2.604,2.61018
1303,2.606,2.61502
1304,2.608,2.60374
1305,2.61,2.58278
1306,2.612,2.58198
1307,2.614,2.5852
1308,2.616,2.59407
1309,2.618,2.59084
1310,2.62,2.58681
1311,2.622,2.59487
1312,2.624,2.60857
1313,2.626,2.60777
1314,2.628,2.60132
1315,2.63,2.60857
1316,2.632,2.61179
1317,2.634,2.60374
1318,2.636,2.61179
1319,2.638,2.60535
1320,2.64,2.61341
1321,2.642,2.63919
1322,2.644,2.63436
1323,2.646,2.62549
1324,2.648,2.62872
1325,2.65,2.63355
1326,2.652,2.64322
1327,2.654,2.64081
1328,2.656,2.63839
1329,2.658,2.64484
1330,2.66,2.64081
1331,2.662,2.63758
1332,2.664,2.63194
1333,2.666,2.63839
1334,2.668,2.64806
1335,2.67,2.64806
1336,2.672,2.64403
1337,2.674,2.64484
1338,2.676,2.63919
1339,2.678,2.64081
1340,2.68,2.65612
1341,2.682,2.65048
1342,2.684,2.65692
1343,2.686,2.65451
1344,2.688,2.66176
1345,2.69,2.65612
1346,2.692,2.6537
1347,2.694,2.6537
1348,2.696,2.66015
1349,2.698,2.67304
1350,2.7,2.67385
1351,2.702,2.67707
1352,2.704,2.67788
1353,2.706,2.67707
1354,2.708,2.67788
1355,2.71,2.67949
1356,2.712,2.67949
1357,2.714,2.67949
1358,2.716,2.68674
1359,2.718,2.68352
1360,2.72,2.6819
1361,2.722,2.6811
1362,2.724,2.68835
1363,2.726,2.68674
1364,2.728,2.68352
1365,2.73,2.68916
1366,2.732,2.68513
1367,2.734,2.68593
1368,2.736,2.69883
1369,2.738,2.70286
1370,2.74,2.69963
1371,2.742,2.71172
1372,2.744,2.71656
1373,2.746,2.71414
1374,2.748,2.70044
1375,2.75,2.71172
1376,2.752,2.72059
1377,2.754,2.72864
1378,2.756,2.7222
1379,2.758,2.73832
1380,2.76,2.73348
1381,2.762,2.73267
1382,2.764,2.73832
1383,2.766,2.73429
1384,2.768,2.72462
1385,2.77,2.72784
1386,2.772,2.72864
1387,2.774,2.73106
1388,2.776,2.7222
1389,2.778,2.72864
1390,2.78,2.72703
1391,2.782,2.72703
1392,2.784,2.74718
1393,2.786,2.73993
1394,2.788,2.74234
1395,2.79,2.74557
1396,2.792,2.74879
1397,2.794,2.75846
1398,2.796,2.76571
1399,2.798,2.76088
1400,2.8,2.77216
1401,2.802,2.7633
1402,2.804,2.76733
1403,2.806,2.76168
1404,2.808,2.76733
1405,2.81,2.77055
1406,2.812,2.76974
1407,2.814,2.77297
1408,2.816,2.76733
1409,2.818,2.76813
1410,2.82,2.76571
1411,2.822,2.78264
1412,2.824,2.76974
1413,2.826,2.77377
1414,2.828,2.76652
1415,2.83,2.75846
1416,2.832,2.76088
1417,2.834,2.77377
1418,2.836,2.77136
1419,2.838,2.77619
1420,2.84,2.77458
1421,2.842,2.77619
1422,2.844,2.78103
1423,2.846,2.79231
1424,2.848,2.79956
1425,2.85,2.80601
1426,2.852,2.79311
1427,2.854,2.79795
1428,2.856,2.80037
1429,2.858,2.79795
1430,2.86,2.78908
1431,2.862,2.7915
1432,2.864,2.79956
1433,2.866,2.7907
1434,2.868,2.78264
1435,2.87,2.7907
1436,2.872,2.78586
1437,2.874,2.78344
1438,2.876,2.78344
1439,2.878,2.79714
1440,2.88,2.78425
1441,2.882,2.78264
1442,2.884,2.7915
1443,2.886,2.78264
1444,2.888,2.78425
1445,2.89,2.78425
1446,2.892,2.78667
1447,2.894,2.78586
1448,2.896,2.78828
1449,2.898,2.78989
1450,2.9,2.78667
1451,2.902,2.80198
1452,2.904,2.78183
1453,2.906,2.77941
1454,2.908,2.78103
1455,2.91,2.77619
1456,2.912,2.78264
1457,2.914,2.777
1458,2.916,2.78264
1459,2.918,2.7633
1460,2.92,2.76974
1461,2.922,2.76894
1462,2.924,2.76733
1463,2.926,2.7633
1464,2.928,2.75846
1465,2.93,2.75201
1466,2.932,2.7496
1467,2.934,2.73267
1468,2.936,2.74476
1469,2.938,2.73993
1470,2.94,2.7367
1471,2.942,2.73267
1472,2.944,2.73348
1473,2.946,2.73509
1474,2.948,2.73348
1475,2.95,2.72945
1476,2.952,2.71575
1477,2.954,2.72542
1478,2.956,2.72462
1479,2.958,2.73106
1480,2.96,2.72864
1481,2.962,2.71172
1482,2.964,2.71172
1483,2.966,2.69722
1484,2.968,2.69963
1485,2.97,2.68916
1486,2.972,2.68835
1487,2.974,2.68029
1488,2.976,2.67304
1489,2.978,2.66498
1490,2.98,2.65612
1491,2.982,2.64081
1492,2.984,2.65451
1493,2.986,2.64242
1494,2.988,2.64403
1495,2.99,2.63758
1496,2.992,2.64322
1497,2.994,2.63597
1498,2.996,2.63436
1499,2.998,2.63114
1500,3.0,2.63275
1501,3.002,2.63114
1502,3.004,2.63033
1503,3.006,2.62872
1504,3.008,2.6126
1505,3.01,2.6126
1506,3.012,2.61179
1507,3.014,2.61179
1508,3.016,2.60857
1509,3.018,2.59971
1510,3.02,2.59084
1511,3.022,2.59084
1512,3.024,2.58762
1513,3.026,2.57634
1514,3.028,2.57956
1515,3.03,2.5715
1516,3.032,2.56022
1517,3.034,2.56344
1518,3.036,2.55619
1519,3.038,2.54733
1520,3.04,2.54571
1521,3.042,2.5441
1522,3.044,2.53121
1523,3.046,2.52234
1524,3.048,2.52879
1525,3.05,2.5441
1526,3.052,2.53524
1527,3.054,2.53524
1528,3.056,2.53766
1529,3.058,2.53121
1530,3.06,2.53201
1531,3.062,2.5441
1532,3.064,2.53524
1533,3.066,2.53201
1534,3.068,2.52154
1535,3.07,2.51267
1536,3.072,2.51429
1537,3.074,2.50059
1538,3.076,2.49011
1539,3.078,2.49575
1540,3.08,2.48286
1541,3.082,2.48447
1542,3.084,2.48447
1543,3.086,2.4748
1544,3.088,2.47802
1545,3.09,2.48447
1546,3.092,2.47722
1547,3.094,2.46593
1548,3.096,2.4756
1549,3.098,2.47319
1550,3.1,2.47319
1551,3.102,2.48608
1552,3.104,2.47722
1553,3.106,2.47963
1554,3.108,2.48366
1555,3.11,2.4893
1556,3.112,2.48286
1557,3.114,2.48608
1558,3.116,2.4756
1559,3.118,2.46674
1560,3.12,2.47238
1561,3.122,2.46674
1562,3.124,2.46916
1563,3.126,2.46352
1564,3.128,2.4611
1565,3.13,2.46029
1566,3.132,2.46352
1567,3.134,2.46513
1568,3.136,2.46432
1569,3.138,2.45949
1570,3.14,2.46593
1571,3.142,2.45546
1572,3.144,2.43853
1573,3.146,2.45304
1574,3.148,2.45788
1575,3.15,2.47158
1576,3.152,2.48286
1577,3.154,2.47399
1578,3.156,2.46593
1579,3.158,2.45707
1580,3.16,2.4611
1581,3.162,2.46674
1582,3.164,2.4619
1583,3.166,2.46271
1584,3.168,2.45304
1585,3.17,2.45788
1586,3.172,2.45788
1587,3.174,2.45385
1588,3.176,2.44982
1589,3.178,2.45546
1590,3.18,2.44901
1591,3.182,2.44095
1592,3.184,2.45143
1593,3.186,2.44095
1594,3.188,2.45062
1595,3.19,2.45304
1596,3.192,2.45868
1597,3.194,2.45868
1598,3.196,2.44659
1599,3.198,2.43289
1600,3.2,2.43451
1601,3.202,2.45223
1602,3.204,2.44256
1603,3.206,2.46029
1604,3.208,2.46029
1605,3.21,2.45304
1606,3.212,2.4619
1607,3.214,2.45143
1608,3.216,2.45143
1609,3.218,2.44901
1610,3.22,2.45304
1611,3.222,2.44337
1612,3.224,2.44498
1613,3.226,2.44176
1614,3.228,2.44256
1615,3.23,2.44095
1616,3.232,2.43773
1617,3.234,2.42886
1618,3.236,2.43128
1619,3.238,2.43451
1620,3.24,2.44901
1621,3.242,2.45223
1622,3.244,2.44498
1623,3.246,2.45465
1624,3.248,2.46996
1625,3.25,2.45304
1626,3.252,2.45949
1627,3.254,2.46352
1628,3.256,2.45385
1629,3.258,2.45788
1630,3.26,2.47158
1631,3.262,2.4619
1632,3.264,2.45385
1633,3.266,2.45143
1634,3.268,2.45062
1635,3.27,2.45304
1636,3.272,2.44095
1637,3.274,2.44418
1638,3.276,2.44901
1639,3.278,2.44498
1640,3.28,2.44498
1641,3.282,2.44498
1642,3.284,2.45385
1643,3.286,2.44901
1644,3.288,2.43853
1645,3.29,2.44418
1646,3.292,2.44659
1647,3.294,2.44256
1648,3.296,2.44418
1649,3.298,2.44418
1650,3.3,2.44982
1651,3.302,2.45143
1652,3.304,2.45465
1653,3.306,2.44418
1654,3.308,2.44256
1655,3.31,2.44418
1656,3.312,2.44095
1657,3.314,2.4474
1658,3.316,2.45143
1659,3.318,2.45062
1660,3.32,2.42645
1661,3.322,2.43048
1662,3.324,2.43934
1663,3.326,2.43209
1664,3.328,2.43209
1665,3.33,2.45062
1666,3.332,2.45062
1667,3.334,2.43934
1668,3.336,2.43853
1669,3.338,2.43128
1670,3.34,2.43048
1671,3.342,2.44015
1672,3.344,2.43773
1673,3.346,2.43451
1674,3.348,2.44015
1675,3.35,2.42484
1676,3.352,2.42322
1677,3.354,2.44418
1678,3.356,2.44256
1679,3.358,2.44821
1680,3.36,2.44498
1681,3.362,2.44176
1682,3.364,2.43692
1683,3.366,2.42725
1684,3.368,2.43128
1685,3.37,2.43773
1686,3.372,2.45788
1687,3.374,2.43934
1688,3.376,2.44015
1689,3.378,2.41919
1690,3.38,2.42242
1691,3.382,2.41597
1692,3.384,2.41275
1693,3.386,2.41355
1694,3.388,2.43209
1695,3.39,2.42806
1696,3.392,2.4337
1697,3.394,2.43209
1698,3.396,2.43853
1699,3.398,2.43209
1700,3.4,2.42484
1701,3.402,2.42725
1702,3.404,2.43612
1703,3.406,2.43612
1704,3.408,2.43853
1705,3.41,2.43128
1706,3.412,2.43209
1707,3.414,2.42725
1708,3.416,2.42081
1709,3.418,2.41275
1710,3.42,2.41275
1711,3.422,2.41033
1712,3.424,2.41839
1713,3.426,2.41516
1714,3.428,2.42564
1715,3.43,2.41436
1716,3.432,2.41275
1717,3.434,2.41033
1718,3.436,2.42161
1719,3.438,2.41033
1720,3.44,2.40147
1721,3.442,2.40711
1722,3.444,2.41194
1723,3.446,2.41275
1724,3.448,2.41114
1725,3.45,2.40549
1726,3.452,2.42081
1727,3.454,2.41275
1728,3.456,2.41114
1729,3.458,2.41436
1730,3.46,2.42081
1731,3.462,2.41758
1732,3.464,2.41839
1733,3.466,2.43209
1734,3.468,2.41597
1735,3.47,2.41839
1736,3.472,2.40952
1737,3.474,2.41919
1738,3.476,2.41033
1739,3.478,2.41275
1740,3.48,2.40549
1741,3.482,2.41355
1742,3.484,2.42242
1743,3.486,2.41678
1744,3.488,2.42081
1745,3.49,2.41033
1746,3.492,2.41194
1747,3.494,2.40711
1748,3.496,2.39341
1749,3.498,2.41033
1750,3.5,2.42725
1751,3.502,2.43128
1752,3.504,2.42725
1753,3.506,2.41516
1754,3.508,2.41436
1755,3.51,2.41436
1756,3.512,2.41516
1757,3.514,2.41436
1758,3.516,2.42161
1759,3.518,2.41839
1760,3.52,2.4063
1761,3.522,2.40469
1762,3.524,2.40147
1763,3.526,2.40952
1764,3.528,2.41597
1765,3.53,2.41516
1766,3.532,2.40388
1767,3.534,2.40227
1768,3.536,2.4063
1769,3.538,2.38938
1770,3.54,2.40066
1771,3.542,2.39744
1772,3.544,2.39018
1773,3.546,2.40549
1774,3.548,2.39744
1775,3.55,2.40066
1776,3.552,2.4063
1777,3.554,2.41275
1778,3.556,2.41516
1779,3.558,2.40952
1780,3.56,2.41275
1781,3.562,2.40308
1782,3.564,2.41597
1783,3.566,2.4063
1784,3.568,2.41275
1785,3.57,2.40711
1786,3.572,2.39985
1787,3.574,2.40549
1788,3.576,2.40388
1789,3.578,2.40308
1790,3.58,2.40872
1791,3.582,2.39018
1792,3.584,2.40066
1793,3.586,2.40308
1794,3.588,2.40388
1795,3.59,2.40549
1796,3.592,2.40388
1797,3.594,2.39985
1798,3.596,2.38938
1799,3.598,2.3789
1800,3.6,2.38938
1801,3.602,2.39824
1802,3.604,2.40549
1803,3.606,2.39663
1804,3.608,2.40227
1805,3.61,2.39824
1806,3.612,2.39744
1807,3.614,2.39663
1808,3.616,2.38938
1809,3.618,2.38777
1810,3.62,2.38696
1811,3.622,2.39099
1812,3.624,2.39663
1813,3.626,2.40308
1814,3.628,2.39905
1815,3.63,2.39582
1816,3.632,2.39421
1817,3.634,2.39663
1818,3.636,2.39502
1819,3.638,2.39663
1820,3.64,2.40388
1821,3.642,2.39744
1822,3.644,2.40147
1823,3.646,2.39099
1824,3.648,2.39744
1825,3.65,2.39341
1826,3.652,2.39421
1827,3.654,2.39985
1828,3.656,2.39582
1829,3.658,2.40711
1830,3.66,2.39099
1831,3.662,2.40952
1832,3.664,2.42
1833,3.666,2.40711
1834,3.668,2.39744
1835,3.67,2.39179
1836,3.672,2.39341
1837,3.674,2.39179
1838,3.676,2.38454
1839,3.678,2.38535
1840,3.68,2.38293
1841,3.682,2.37648
1842,3.684,2.37165
1843,3.686,2.36923
1844,3.688,2.37729
1845,3.69,2.3789
1846,3.692,2.38615
1847,3.694,2.37648
1848,3.696,2.37729
1849,3.698,2.37245
1850,3.7,2.39582
1851,3.702,2.38857
1852,3.704,2.38454
1853,3.706,2.39582
1854,3.708,2.40227
1855,3.71,2.38938
1856,3.712,2.38696
1857,3.714,2.38938
1858,3.716,2.38293
1859,3.718,2.38293
1860,3.72,2.40227
1861,3.722,2.41114
1862,3.724,2.39582
1863,3.726,2.40308
1864,3.728,2.40227
1865,3.73,2.39502
1866,3.732,2.39905
1867,3.734,2.39421
1868,3.736,2.40549
1869,3.738,2.4063
1870,3.74,2.39663
1871,3.742,2.39663
1872,3.744,2.40066
1873,3.746,2.40711
1874,3.748,2.40147
1875,3.75,2.40066
1876,3.752,2.38938
1877,3.754,2.40711
1878,3.756,2.41275
1879,3.758,2.40549
1880,3.76,2.40549
1881,3.762,2.39421
1882,3.764,2.39663
1883,3.766,2.40469
1884,3.768,2.40549
1885,3.77,2.38938
1886,3.772,2.38051
1887,3.774,2.37568
1888,3.776,2.38374
1889,3.778,2.38051
1890,3.78,2.37004
1891,3.782,2.38696
1892,3.784,2.37084
1893,3.786,2.37326
1894,3.788,2.35231
1895,3.79,2.35956
1896,3.792,2.37648
1897,3.794,2.3789
1898,3.796,2.37648
1899,3.798,2.37004
1900,3.8,2.37326
1901,3.802,2.37407
1902,3.804,2.37648
1903,3.806,2.37407
1904,3.808,2.38696
1905,3.81,2.37971
1906,3.812,2.39018
1907,3.814,2.37568
1908,3.816,2.37648
1909,3.818,2.37487
1910,3.82,2.38777
1911,3.822,2.39502
1912,3.824,2.38132
1913,3.826,2.38293
1914,3.828,2.38212
1915,3.83,2.39099
1916,3.832,2.4063
1917,3.834,2.40147
1918,3.836,2.4063
1919,3.838,2.41033
1920,3.84,2.40711
1921,3.842,2.39744
1922,3.844,2.40388
1923,3.846,2.40872
1924,3.848,2.39744
1925,3.85,2.3926
1926,3.852,2.40147
1927,3.854,2.39985
1928,3.856,2.38938
1929,3.858,2.39421
1930,3.86,2.40147
1931,3.862,2.39099
1932,3.864,2.39582
1933,3.866,2.39341
1934,3.868,2.38938
1935,3.87,2.38374
1936,3.872,2.38777
1937,3.874,2.38615
1938,3.876,2.39582
1939,3.878,2.38938
1940,3.88,2.38212
1941,3.882,2.38938
1942,3.884,2.37084
1943,3.886,2.38615
1944,3.888,2.38777
1945,3.89,2.39099
1946,3.892,2.37648
1947,3.894,2.38938
1948,3.896,2.40308
1949,3.898,2.39582
1950,3.9,2.38051
1951,3.902,2.38777
1952,3.904,2.4063
1953,3.906,2.41114
1954,3.908,2.42403
1955,3.91,2.42161
1956,3.912,2.40952
1957,3.914,2.4063
1958,3.916,2.42484
1959,3.918,2.41678
1960,3.92,2.42322
1961,3.922,2.41516
1962,3.924,2.40227
1963,3.926,2.38938
1964,3.928,2.39421
1965,3.93,2.41839
1966,3.932,2.42242
1967,3.934,2.39744
1968,3.936,2.40066
1969,3.938,2.40549
1970,3.94,2.39341
1971,3.942,2.40147
1972,3.944,2.40308
1973,3.946,2.40147
1974,3.948,2.4063
1975,3.95,2.42081
1976,3.952,2.43773
1977,3.954,2.42886
1978,3.956,2.42403
1979,3.958,2.42484
1980,3.96,2.44982
1981,3.962,2.43934
1982,3.964,2.43451
1983,3.966,2.42645
1984,3.968,2.43209
1985,3.97,2.43289
1986,3.972,2.41436
1987,3.974,2.41597
1988,3.976,2.41436
1989,3.978,2.41919
1990,3.98,2.42725
1991,3.982,2.43853
1992,3.984,2.42967
1993,3.986,2.41678
1994,3.988,2.42
1995,3.99,2.42
1996,3.992,2.42242
1997,3.994,2.42242
1998,3.996,2.42725
1999,3.998,2.42161
2000,4.0,2.42403
2001,4.002,2.42886
2002,4.004,2.44256
2003,4.006,2.44095
2004,4.008,2.43773
2005,4.01,2.43934
2006,4.012,2.44176
2007,4.014,2.44579
2008,4.016,2.42806
2009,4.018,2.43612
2010,4.02,2.44901
2011,4.022,2.43128
2012,4.024,2.43289
2013,4.026,2.41919
2014,4.028,2.41033
2015,4.03,2.42484
2016,4.032,2.41919
2017,4.034,2.42564
2018,4.036,2.41516
2019,4.038,2.41355
2020,4.04,2.40872
2021,4.042,2.40227
2022,4.044,2.42242
2023,4.046,2.42081
2024,4.048,2.44095
2025,4.05,2.45223
2026,4.052,2.44095
2027,4.054,2.44337
2028,4.056,2.45304
2029,4.058,2.48286
2030,4.06,2.48366
2031,4.062,2.48286
2032,4.064,2.49253
2033,4.066,2.50462
2034,4.068,2.48447
2035,4.07,2.4748
2036,4.072,2.46674
2037,4.074,2.47963
2038,4.076,2.48689
2039,4.078,2.49172
2040,4.08,2.48366
2041,4.082,2.4748
2042,4.084,2.49897
2043,4.086,2.49253
2044,4.088,2.47963
2045,4.09,2.45385
2046,4.092,2.44256
2047,4.094,2.45546
2048,4.096,2.46674
2049,4.098,2.46593
2050,4.1,2.46755
2051,4.102,2.46271
2052,4.104,2.46432
2053,4.106,2.47399
2054,4.108,2.47399
2055,4.11,2.49011
2056,4.112,2.49736
2057,4.114,2.50864
2058,4.116,2.50139
2059,4.118,2.50462
2060,4.12,2.51026
2061,4.122,2.5159
2062,4.124,2.51026
2063,4.126,2.49978
2064,4.128,2.49575
2065,4.13,2.49817
2066,4.132,2.5159
2067,4.134,2.51106
2068,4.136,2.49897
2069,4.138,2.49011
2070,4.14,2.49011
2071,4.142,2.4756
2072,4.144,2.48286
2073,4.146,2.48044
2074,4.148,2.48447
2075,4.15,2.49575
2076,4.152,2.47963
2077,4.154,2.48689
2078,4.156,2.4885
2079,4.158,2.49092
2080,4.16,2.49172
2081,4.162,2.47883
2082,4.164,2.48447
2083,4.166,2.47963
2084,4.168,2.47077
2085,4.17,2.46674
2086,4.172,2.45707
2087,4.174,2.45385
2088,4.176,2.44337
2089,4.178,2.45143
2090,4.18,2.44015
2091,4.182,2.43209
2092,4.184,2.42806
2093,4.186,2.41597
2094,4.188,2.41919
2095,4.19,2.42645
2096,4.192,2.40872
2097,4.194,2.40872
2098,4.196,2.40952
2099,4.198,2.40711
2100,4.2,2.40711
2101,4.202,2.40227
2102,4.204,2.40549
2103,4.206,2.41114
2104,4.208,2.40388
2105,4.21,2.39744
2106,4.212,2.39099
2107,4.214,2.39582
2108,4.216,2.39341
2109,4.218,2.38615
2110,4.22,2.39018
2111,4.222,2.39582
2112,4.224,2.40227
2113,4.226,2.38938
2114,4.228,2.38696
2115,4.23,2.38454
2116,4.232,2.37971
2117,4.234,2.39179
2118,4.236,2.38051
2119,4.238,2.36842
2120,4.24,2.38374
2121,4.242,2.38051
2122,4.244,2.37648
2123,4.246,2.3781
2124,4.248,2.37084
2125,4.25,2.37729
2126,4.252,2.38132
2127,4.254,2.37648
2128,4.256,2.37084
2129,4.258,2.37326
2130,4.26,2.37971
2131,4.262,2.39099
2132,4.264,2.38535
2133,4.266,2.38051
2134,4.268,2.37971
2135,4.27,2.38293
2136,4.272,2.36762
2137,4.274,2.38051
2138,4.276,2.38051
2139,4.278,2.38212
2140,4.28,2.38857
2141,4.282,2.37648
2142,4.284,2.40066
2143,4.286,2.39744
2144,4.288,2.39502
2145,4.29,2.40469
2146,4.292,2.38051
2147,4.294,2.3789
2148,4.296,2.38051
2149,4.298,2.38535
2150,4.3,2.3781
2151,4.302,2.3652
2152,4.304,2.37648
2153,4.306,2.37971
2154,4.308,2.39824
2155,4.31,2.39502
2156,4.312,2.38777
2157,4.314,2.39744
2158,4.316,2.41275
2159,4.318,2.39663
2160,4.32,2.38938
2161,4.322,2.37326
2162,4.324,2.36842
2163,4.326,2.37165
2164,4.328,2.36681
2165,4.33,2.36681
2166,4.332,2.37084
2167,4.334,2.38051
2168,4.336,2.37165
2169,4.338,2.3781
2170,4.34,2.38454
2171,4.342,2.38051
2172,4.344,2.37568
2173,4.346,2.37971
2174,4.348,2.37004
2175,4.35,2.37326
2176,4.352,2.35231
2177,4.354,2.3507
2178,4.356,2.36762
2179,4.358,2.37407
2180,4.36,2.3781
2181,4.362,2.38132
2182,4.364,2.38777
2183,4.366,2.38938
2184,4.368,2.38615
2185,4.37,2.38938
2186,4.372,2.39744
2187,4.374,2.39421
2188,4.376,2.39099
2189,4.378,2.40711
2190,4.38,2.40066
2191,4.382,2.39905
2192,4.384,2.40066
2193,4.386,2.39421
2194,4.388,2.39099
2195,4.39,2.39985
2196,4.392,2.40227
2197,4.394,2.40066
2198,4.396,2.37971
2199,4.398,2.3926
2200,4.4,2.39421
2201,4.402,2.39663
2202,4.404,2.40388
2203,4.406,2.39744
2204,4.408,2.41275
2205,4.41,2.39985
2206,4.412,2.41114
2207,4.414,2.40388
2208,4.416,2.41758
2209,4.418,2.41678
2210,4.42,2.41678
2211,4.422,2.39744
2212,4.424,2.41275
2213,4.426,2.40952
2214,4.428,2.4063
2215,4.43,2.38051
2216,4.432,2.37648
2217,4.434,2.37568
2218,4.436,2.37971
2219,4.438,2.38696
2220,4.44,2.38696
2221,4.442,2.38938
2222,4.444,2.39018
2223,4.446,2.39421
2224,4.448,2.41033
2225,4.45,2.40227
2226,4.452,2.4063
2227,4.454,2.41275
2228,4.456,2.42725
2229,4.458,2.42806
2230,4.46,2.44901
2231,4.462,2.45385
2232,4.464,2.44901
2233,4.466,2.46029
2234,4.468,2.44579
2235,4.47,2.43853
2236,4.472,2.43612
2237,4.474,2.43451
2238,4.476,2.44982
2239,4.478,2.46029
2240,4.48,2.45143
2241,4.482,2.46432
2242,4.484,2.50139
2243,4.486,2.53363
2244,4.488,2.54491
2245,4.49,2.55377
2246,4.492,2.59326
2247,4.494,2.62147
2248,4.496,2.63678
2249,4.498,2.66901
2250,4.5,2.71092
2251,4.502,2.76249
2252,4.504,2.8181
2253,4.506,2.84549
2254,4.508,2.91077
2255,4.51,2.96879
2256,4.512,3.04374
2257,4.514,3.08886
2258,4.516,3.1219
2259,4.518,3.18557
2260,4.52,3.2307
2261,4.522,3.26696
2262,4.524,3.25407
2263,4.526,3.28066
2264,4.528,3.29597
2265,4.53,3.3
2266,4.532,3.3
2267,4.534,3.29678
2268,4.536,3.27179
2269,4.538,3.26132
2270,4.54,3.26696
2271,4.542,3.23795
2272,4.544,3.20652
2273,4.546,3.18234
2274,4.548,3.13722
2275,4.55,3.06066
2276,4.552,2.94703
2277,4.554,2.83099
2278,4.556,2.72059
2279,4.558,2.63516
2280,4.56,2.56989
2281,4.562,2.47158
2282,4.564,2.37971
2283,4.566,2.32007
2284,4.568,2.22901
2285,4.57,2.15487
2286,4.572,2.10088
2287,4.574,2.03399
2288,4.576,1.99209
2289,4.578,1.93245
2290,4.58,1.89136
2291,4.582,1.84542
2292,4.584,1.80432
2293,4.586,1.79546
2294,4.588,1.79304
2295,4.59,1.74791
2296,4.592,1.71568
2297,4.594,1.70037
2298,4.596,1.68586
2299,4.598,1.67619
2300,4.6,1.66088
2301,4.602,1.67377
2302,4.604,1.70923
2303,4.606,1.73179
2304,4.608,1.77612
2305,4.61,1.83897
2306,4.612,1.90183
2307,4.614,1.93487
2308,4.616,1.97678
2309,4.618,2.01949
2310,4.62,2.06462
2311,4.622,2.08718
2312,4.624,2.12103
2313,4.626,2.17502
2314,4.628,2.22418
2315,4.63,2.27333
2316,4.632,2.31927
2317,4.634,2.35714
2318,4.636,2.40227
2319,4.638,2.42484
2320,4.64,2.44095
2321,4.642,2.44982
2322,4.644,2.4611
2323,4.646,2.45626
2324,4.648,2.46996
2325,4.65,2.45385
2326,4.652,2.46352
2327,4.654,2.47319
2328,4.656,2.47883
2329,4.658,2.49011
2330,4.66,2.4893
2331,4.662,2.48608
2332,4.664,2.48608
2333,4.666,2.48447
2334,4.668,2.48769
2335,4.67,2.49495
2336,4.672,2.50462
2337,4.674,2.50623
2338,4.676,2.5022
2339,4.678,2.48366
2340,4.68,2.48286
2341,4.682,2.49011
2342,4.684,2.48689
2343,4.686,2.47963
2344,4.688,2.48125
2345,4.69,2.48125
2346,4.692,2.48527
2347,4.694,2.49253
2348,4.696,2.48447
2349,4.698,2.48447
2350,4.7,2.48286
2351,4.702,2.48205
2352,4.704,2.4885
2353,4.706,2.47399
2354,4.708,2.47319
2355,4.71,2.47722
2356,4.712,2.48608
2357,4.714,2.49575
2358,4.716,2.50059
2359,4.718,2.50784
2360,4.72,2.5022
2361,4.722,2.49414
2362,4.724,2.50462
2363,4.726,2.49414
2364,4.728,2.48447
2365,4.73,2.48286
2366,4.732,2.49253
2367,4.734,2.49897
2368,4.736,2.50139
2369,4.738,2.49978
2370,4.74,2.51267
2371,4.742,2.49817
2372,4.744,2.50059
2373,4.746,2.49817
2374,4.748,2.4885
2375,4.75,2.50381
2376,4.752,2.5022
2377,4.754,2.51026
2378,4.756,2.49736
2379,4.758,2.50462
2380,4.76,2.50623
2381,4.762,2.5159
2382,4.764,2.52476
2383,4.766,2.53121
2384,4.768,2.52476
2385,4.77,2.5167
2386,4.772,2.52154
2387,4.774,2.52476
2388,4.776,2.51832
2389,4.778,2.52879
2390,4.78,2.52315
2391,4.782,2.51832
2392,4.784,2.52557
2393,4.786,2.51267
2394,4.788,2.51912
2395,4.79,2.51187
2396,4.792,2.51912
2397,4.794,2.50945
2398,4.796,2.51429
2399,4.798,2.52396
2400,4.8,2.51509
2401,4.802,2.51832
2402,4.804,2.50542
2403,4.806,2.52315
2404,4.808,2.52234
2405,4.81,2.5304
2406,4.812,2.52476
2407,4.814,2.52396
2408,4.816,2.52315
2409,4.818,2.52718
2410,4.82,2.51026
2411,4.822,2.5167
2412,4.824,2.5159
2413,4.826,2.5304
2414,4.828,2.51993
2415,4.83,2.52234
2416,4.832,2.51993
2417,4.834,2.5159
2418,4.836,2.51026
2419,4.838,2.52073
2420,4.84,2.53766
2421,4.842,2.5304
2422,4.844,2.53201
2423,4.846,2.52234
2424,4.848,2.5304
2425,4.85,2.5304
2426,4.852,2.53524
2427,4.854,2.53121
2428,4.856,2.53282
2429,4.858,2.54571
2430,4.86,2.54491
2431,4.862,2.55136
2432,4.864,2.55216
2433,4.866,2.54894
2434,4.868,2.54571
2435,4.87,2.54813
2436,4.872,2.55861
2437,4.874,2.54974
2438,4.876,2.54169
2439,4.878,2.53846
2440,4.88,2.53604
2441,4.882,2.53201
2442,4.884,2.52637
2443,4.886,2.53846
2444,4.888,2.53846
2445,4.89,2.52718
2446,4.892,2.53121
2447,4.894,2.53524
2448,4.896,2.52315
2449,4.898,2.53604
2450,4.9,2.53524
2451,4.902,2.53766
2452,4.904,2.53927
2453,4.906,2.53766
2454,4.908,2.54249
2455,4.91,2.54894
2456,4.912,2.55458
2457,4.914,2.54813
2458,4.916,2.56183
2459,4.918,2.56586
2460,4.92,2.54894
2461,4.922,2.57392
2462,4.924,2.58359
2463,4.926,2.57231
2464,4.928,2.57473
2465,4.93,2.557
2466,4.932,2.56344
2467,4.934,2.56425
2468,4.936,2.55861
2469,4.938,2.55377
2470,4.94,2.55377
2471,4.942,2.56505
2472,4.944,2.57392
2473,4.946,2.57473
2474,4.948,2.5715
2475,4.95,2.56747
2476,4.952,2.56667
2477,4.954,2.56344
2478,4.956,2.57392
2479,4.958,2.57392
2480,4.96,2.57634
2481,4.962,2.58037
2482,4.964,2.58923
2483,4.966,2.58601
2484,4.968,2.58278
2485,4.97,2.60212
2486,4.972,2.59971
2487,4.974,2.60696
2488,4.976,2.5981
2489,4.978,2.60051
2490,4.98,2.59004
2491,4.982,2.58198
2492,4.984,2.58923
2493,4.986,2.58359
2494,4.988,2.57795
2495,4.99,2.57392
2496,4.992,2.58278
2497,4.994,2.59407
2498,4.996,2.5989
2499,4.998,2.59084
2500,5.0,2.58359
2501,5.002,2.60938
2502,5.004,2.60051
2503,5.006,2.60293
2504,5.008,2.60454
2505,5.01,2.60857
2506,5.012,2.61663
2507,5.014,2.6263
2508,5.016,2.62872
2509,5.018,2.63597
2510,5.02,2.63114
2511,5.022,2.64645
2512,5.024,2.64161
2513,5.026,2.64322
2514,5.028,2.64403
2515,5.03,2.63758
2516,5.032,2.63516
2517,5.034,2.64161
2518,5.036,2.64081
2519,5.038,2.64645
2520,5.04,2.65451
2521,5.042,2.65209
2522,5.044,2.65612
2523,5.046,2.66176
2524,5.048,2.65451
2525,5.05,2.6537
2526,5.052,2.65289
2527,5.054,2.65853
2528,5.056,2.66498
2529,5.058,2.6819
2530,5.06,2.69077
2531,5.062,2.68996
2532,5.064,2.69399
2533,5.066,2.69963
2534,5.068,2.69077
2535,5.07,2.69077
2536,5.072,2.69077
2537,5.074,2.68432
2538,5.076,2.69963
2539,5.078,2.69883
2540,5.08,2.69722
2541,5.082,2.68593
2542,5.084,2.68432
2543,5.086,2.68674
2544,5.088,2.6948
2545,5.09,2.69077
2546,5.092,2.68432
2547,5.094,2.69963
2548,5.096,2.69641
2549,5.098,2.70608
2550,5.1,2.70286
2551,5.102,2.70044
2552,5.104,2.71172
2553,5.106,2.7093
2554,5.108,2.71817
2555,5.11,2.72784
2556,5.112,2.72945
2557,5.114,2.73429
2558,5.116,2.73429
2559,5.118,2.74154
2560,5.12,2.73751
2561,5.122,2.74154
2562,5.124,2.74073
2563,5.126,2.74154
2564,5.128,2.72864
2565,5.13,2.7504
2566,5.132,2.74234
2567,5.134,2.72945
2568,5.136,2.7085
2569,5.138,2.71172
2570,5.14,2.71011
2571,5.142,2.71172
2572,5.144,2.71897
2573,5.146,2.73509
2574,5.148,2.73187
2575,5.15,2.72784
2576,5.152,2.72784
2577,5.154,2.73993
2578,5.156,2.74315
2579,5.158,2.75524
2580,5.16,2.75846
2581,5.162,2.74557
2582,5.164,2.74637
2583,5.166,2.75524
2584,5.168,2.77297
2585,5.17,2.76088
2586,5.172,2.7496
2587,5.174,2.74396
2588,5.176,2.7496
2589,5.178,2.76088
2590,5.18,2.77538
2591,5.182,2.75363
2592,5.184,2.75121
2593,5.186,2.74396
2594,5.188,2.74476
2595,5.19,2.73993
2596,5.192,2.74234
2597,5.194,2.73912
2598,5.196,2.7496
2599,5.198,2.75443
2600,5.2,2.74234
2601,5.202,2.75201
2602,5.204,2.74799
2603,5.206,2.74396
2604,5.208,2.7359
2605,5.21,2.74476
2606,5.212,2.7504
2607,5.214,2.75524
2608,5.216,2.75524
2609,5.218,2.7633
2610,5.22,2.7633
2611,5.222,2.77216
2612,5.224,2.77297
2613,5.226,2.76813
2614,5.228,2.76813
2615,5.23,2.75201
2616,5.232,2.75685
2617,5.234,2.76813
2618,5.236,2.75443
2619,5.238,2.74234
2620,5.24,2.7504
2621,5.242,2.7504
2622,5.244,2.74879
2623,5.246,2.75201
2624,5.248,2.75927
2625,5.25,2.75766
2626,5.252,2.75524
2627,5.254,2.75201
2628,5.256,2.75524
2629,5.258,2.74557
2630,5.26,2.74799
2631,5.262,2.7222
2632,5.264,2.73509
2633,5.266,2.74315
2634,5.268,2.75363
2635,5.27,2.76249
2636,5.272,2.74718
2637,5.274,2.73509
2638,5.276,2.73267
2639,5.278,2.73993
2640,5.28,2.73026
2641,5.282,2.72864
2642,5.284,2.71656
2643,5.286,2.70366
2644,5.288,2.70366
2645,5.29,2.7222
2646,5.292,2.71011
2647,5.294,2.70125
2648,5.296,2.70608
2649,5.298,2.69077
2650,5.3,2.71897
2651,5.302,2.69802
2652,5.304,2.68593
2653,5.306,2.68916
2654,5.308,2.69883
2655,5.31,2.67385
2656,5.312,2.6811
2657,5.314,2.67143
2658,5.316,2.67546
2659,5.318,2.67868
2660,5.32,2.67707
2661,5.322,2.66901
2662,5.324,2.6674
2663,5.326,2.66095
2664,5.328,2.66176
2665,5.33,2.65451
2666,5.332,2.63839
2667,5.334,2.64081
2668,5.336,2.63516
2669,5.338,2.62952
2670,5.34,2.61502
2671,5.342,2.63194
2672,5.344,2.61018
2673,5.346,2.61905
2674,5.348,2.61582
2675,5.35,2.60374
2676,5.352,2.59407
2677,5.354,2.58601
2678,5.356,2.58037
2679,5.358,2.5852
2680,5.36,2.58117
2681,5.362,2.58601
2682,5.364,2.57231
2683,5.366,2.57875
2684,5.368,2.56828
2685,5.37,2.56747
2686,5.372,2.56183
2687,5.374,2.56989
2688,5.376,2.56183
2689,5.378,2.56344
2690,5.38,2.55136
2691,5.382,2.53927
2692,5.384,2.53927
2693,5.386,2.54733
2694,5.388,2.53766
2695,5.39,2.52799
2696,5.392,2.52476
2697,5.394,2.51912
2698,5.396,2.51751
2699,5.398,2.51832
2700,5.4,2.50945
2701,5.402,2.51026
2702,5.404,2.49817
2703,5.406,2.49011
2704,5.408,2.49897
2705,5.41,2.49495
2706,5.412,2.4893
2707,5.414,2.50059
2708,5.416,2.49333
2709,5.418,2.5022
2710,5.42,2.49414
2711,5.422,2.49978
2712,5.424,2.49978
2713,5.426,2.49092
2714,5.428,2.49333
2715,5.43,2.49092
2716,5.432,2.49978
2717,5.434,2.46996
2718,5.436,2.46674
2719,5.438,2.46271
2720,5.44,2.46029
2721,5.442,2.47399
2722,5.444,2.46674
2723,5.446,2.46835
2724,5.448,2.46674
2725,5.45,2.45788
2726,5.452,2.44498
2727,5.454,2.44498
2728,5.456,2.44659
2729,5.458,2.43853
2730,5.46,2.43773
2731,5.462,2.45143
2732,5.464,2.44579
2733,5.466,2.44579
2734,5.468,2.47319
2735,5.47,2.45385
2736,5.472,2.44821
2737,5.474,2.45143
2738,5.476,2.45304
2739,5.478,2.45626
2740,5.48,2.44256
2741,5.482,2.43612
2742,5.484,2.44176
2743,5.486,2.44579
2744,5.488,2.43451
2745,5.49,2.43612
2746,5.492,2.44659
2747,5.494,2.43853
2748,5.496,2.43853
2749,5.498,2.45304
2750,5.5,2.45788
2751,5.502,2.44418
2752,5.504,2.42886
2753,5.506,2.43853
2754,5.508,2.43048
2755,5.51,2.42886
2756,5.512,2.42806
2757,5.514,2.42806
2758,5.516,2.44659
2759,5.518,2.42886
2760,5.52,2.43128
2761,5.522,2.4337
2762,5.524,2.43934
2763,5.526,2.44095
2764,5.528,2.44982
2765,5.53,2.45304
2766,5.532,2.43612
2767,5.534,2.43853
2768,5.536,2.43853
2769,5.538,2.44176
2770,5.54,2.44256
2771,5.542,2.44176
2772,5.544,2.43451
2773,5.546,2.43531
2774,5.548,2.43612
2775,5.55,2.44659
2776,5.552,2.44418
2777,5.554,2.43853
2778,5.556,2.43128
2779,5.558,2.44015
2780,5.56,2.43289
2781,5.562,2.42322
2782,5.564,2.43209
2783,5.566,2.44659
2784,5.568,2.45304
2785,5.57,2.45465
2786,5.572,2.45385
2787,5.574,2.45304
2788,5.576,2.43612
2789,5.578,2.44095
2790,5.58,2.45143
2791,5.582,2.45385
2792,5.584,2.44337
2793,5.586,2.44095
2794,5.588,2.44095
2795,5.59,2.45143
2796,5.592,2.44015
2797,5.594,2.45465
2798,5.596,2.44015
2799,5.598,2.44095
2800,5.6,2.43612
2801,5.602,2.43289
2802,5.604,2.43853
2803,5.606,2.42564
2804,5.608,2.43289
2805,5.61,2.43853
2806,5.612,2.43612
2807,5.614,2.42967
2808,5.616,2.43289
2809,5.618,2.42967
2810,5.62,2.43289
2811,5.622,2.43209
2812,5.624,2.45062
2813,5.626,2.43451
2814,5.628,2.44498
2815,5.63,2.44256
2816,5.632,2.45385
2817,5.634,2.44418
2818,5.636,2.44982
2819,5.638,2.43289
2820,5.64,2.45465
2821,5.642,2.43451
2822,5.644,2.43048
2823,5.646,2.42484
2824,5.648,2.4337
2825,5.65,2.44176
2826,5.652,2.42886
2827,5.654,2.42725
2828,5.656,2.43853
2829,5.658,2.43451
2830,5.66,2.44498
2831,5.662,2.44659
2832,5.664,2.46271
2833,5.666,2.45385
2834,5.668,2.46432
2835,5.67,2.46996
2836,5.672,2.45546
2837,5.674,2.45385
2838,5.676,2.4474
2839,5.678,2.45223
2840,5.68,2.44498
2841,5.682,2.44095
2842,5.684,2.43289
2843,5.686,2.44015
2844,5.688,2.43209
2845,5.69,2.43934
2846,5.692,2.44095
2847,5.694,2.43853
2848,5.696,2.43773
2849,5.698,2.44176
2850,5.7,2.43773
2851,5.702,2.44982
2852,5.704,2.43209
2853,5.706,2.43853
2854,5.708,2.4474
2855,5.71,2.43692
2856,5.712,2.43612
2857,5.714,2.43209
2858,5.716,2.43773
2859,5.718,2.43048
2860,5.72,2.44256
2861,5.722,2.44498
2862,5.724,2.45385
2863,5.726,2.44498
2864,5.728,2.4474
2865,5.73,2.45385
2866,5.732,2.44256
2867,5.734,2.43934
2868,5.736,2.43773
2869,5.738,2.43048
2870,5.74,2.43289
2871,5.742,2.43289
2872,5.744,2.44256
2873,5.746,2.42886
2874,5.748,2.43048
2875,5.75,2.43289
2876,5.752,2.43934
2877,5.754,2.44095
2878,5.756,2.42886
2879,5.758,2.40227
2880,5.76,2.43128
2881,5.762,2.42886
2882,5.764,2.43692
2883,5.766,2.44256
2884,5.768,2.44982
2885,5.77,2.44095
2886,5.772,2.44015
2887,5.774,2.43853
2888,5.776,2.43209
2889,5.778,2.43048
2890,5.78,2.43048
2891,5.782,2.43451
2892,5.784,2.42806
2893,5.786,2.42725
2894,5.788,2.42806
2895,5.79,2.42242
2896,5.792,2.42242
2897,5.794,2.41516
2898,5.796,2.40872
2899,5.798,2.40066
2900,5.8,2.40147
2901,5.802,2.40549
2902,5.804,2.40066
2903,5.806,2.4063
2904,5.808,2.40227
2905,5.81,2.39905
2906,5.812,2.40469
2907,5.814,2.39744
2908,5.816,2.41275
2909,5.818,2.41436
2910,5.82,2.42242
2911,5.822,2.41597
2912,5.824,2.41436
2913,5.826,2.41194
2914,5.828,2.41839
2915,5.83,2.40711
2916,5.832,2.41758
2917,5.834,2.41194
2918,5.836,2.41436
2919,5.838,2.41516
2920,5.84,2.41033
2921,5.842,2.40227
2922,5.844,2.39744
2923,5.846,2.40227
2924,5.848,2.39744
2925,5.85,2.38696
2926,5.852,2.39905
2927,5.854,2.37245
2928,5.856,2.40388
2929,5.858,2.39582
2930,5.86,2.41194
2931,5.862,2.41114
2932,5.864,2.40711
2933,5.866,2.42081
2934,5.868,2.41516
2935,5.87,2.40872
2936,5.872,2.40791
2937,5.874,2.4063
2938,5.876,2.39985
2939,5.878,2.39502
2940,5.88,2.40549
2941,5.882,2.39985
2942,5.884,2.40227
2943,5.886,2.39663
2944,5.888,2.3926
2945,5.89,2.38938
2946,5.892,2.38938
2947,5.894,2.38132
2948,5.896,2.39099
2949,5.898,2.3781
2950,5.9,2.3926
2951,5.902,2.3926
2952,5.904,2.3789
2953,5.906,2.37568
2954,5.908,2.36842
2955,5.91,2.35473
2956,5.912,2.35875
2957,5.914,2.36037
2958,5.916,2.37326
2959,5.918,2.39341
2960,5.92,2.39099
2961,5.922,2.39018
2962,5.924,2.38696
2963,5.926,2.38132
2964,5.928,2.39341
2965,5.93,2.39824
2966,5.932,2.39421
2967,5.934,2.39985
2968,5.936,2.39502
2969,5.938,2.40308
2970,5.94,2.39341
2971,5.942,2.40308
2972,5.944,2.4063
2973,5.946,2.40066
2974,5.948,2.39421
2975,5.95,2.4063
2976,5.952,2.41275
2977,5.954,2.39985
2978,5.956,2.39582
2979,5.958,2.39502
2980,5.96,2.40308
2981,5.962,2.40227
2982,5.964,2.40308
2983,5.966,2.40872
2984,5.968,2.41275
2985,5.97,2.40711
2986,5.972,2.4063
2987,5.974,2.41758
2988,5.976,2.42081
2989,5.978,2.42161
2990,5.98,2.40711
2991,5.982,2.40711
2992,5.984,2.39018
2993,5.986,2.38938
2994,5.988,2.3926
2995,5.99,2.39905
2996,5.992,2.39341
2997,5.994,2.39099
2998,5.996,2.37729
2999,5.998,2.38857
3000,6.0,2.38938
3001,6.002,2.38696
3002,6.004,2.37245
3003,6.006,2.38454
3004,6.008,2.3781
3005,6.01,2.38374
3006,6.012,2.39663
3007,6.014,2.39179
3008,6.016,2.3789
3009,6.018,2.38132
3010,6.02,2.38132
3011,6.022,2.39582
3012,6.024,2.39341
3013,6.026,2.38777
3014,6.028,2.38696
3015,6.03,2.39421
3016,6.032,2.39744
3017,6.034,2.41275
3018,6.036,2.40308
3019,6.038,2.40227
3020,6.04,2.39341
3021,6.042,2.39985
3022,6.044,2.40147
3023,6.046,2.39341
3024,6.048,2.39099
3025,6.05,2.39099
3026,6.052,2.39985
3027,6.054,2.41033
3028,6.056,2.40308
3029,6.058,2.40147
3030,6.06,2.39099
3031,6.062,2.39905
3032,6.064,2.3926
3033,6.066,2.38777
3034,6.068,2.39663
3035,6.07,2.40711
3036,6.072,2.40388
3037,6.074,2.41114
3038,6.076,2.41033
3039,6.078,2.40308
3040,6.08,2.39582
3041,6.082,2.37648
3042,6.084,2.39905
3043,6.086,2.39582
3044,6.088,2.4063
3045,6.09,2.37568
3046,6.092,2.38938
3047,6.094,2.38777
3048,6.096,2.37245
3049,6.098,2.3926
3050,6.1,2.3926
3051,6.102,2.3781
3052,6.104,2.3926
3053,6.106,2.38293
3054,6.108,2.39582
3055,6.11,2.38857
3056,6.112,2.38938
3057,6.114,2.38454
3058,6.116,2.38535
3059,6.118,2.3515
3060,6.12,2.39663
3061,6.122,2.39744
3062,6.124,2.39421
3063,6.126,2.38615
3064,6.128,2.39663
3065,6.13,2.3926
3066,6.132,2.39421
3067,6.134,2.38051
3068,6.136,2.38132
3069,6.138,2.36842
3070,6.14,2.36359
3071,6.142,2.3644
3072,6.144,2.36601
3073,6.146,2.37487
3074,6.148,2.37648
3075,6.15,2.37971
3076,6.152,2.39018
3077,6.154,2.3789
3078,6.156,2.38293
3079,6.158,2.38777
3080,6.16,2.39744
3081,6.162,2.40227
3082,6.164,2.4063
3083,6.166,2.40469
3084,6.168,2.39985
3085,6.17,2.41194
3086,6.172,2.41678
3087,6.174,2.41275
3088,6.176,2.42081
3089,6.178,2.42725
3090,6.18,2.42
3091,6.182,2.40952
3092,6.184,2.42484
3093,6.186,2.41919
3094,6.188,2.40872
3095,6.19,2.4063
3096,6.192,2.40227
3097,6.194,2.40388
3098,6.196,2.40227
3099,6.198,2.40227
3100,6.2,2.40549
3101,6.202,2.39582
3102,6.204,2.39663
3103,6.206,2.38938
3104,6.208,2.39663
3105,6.21,2.39824
3106,6.212,2.40952
3107,6.214,2.40952
3108,6.216,2.40872
3109,6.218,2.41275
3110,6.22,2.41033
3111,6.222,2.41275
3112,6.224,2.40227
3113,6.226,2.40952
3114,6.228,2.40469
3115,6.23,2.40227
3116,6.232,2.4063
3117,6.234,2.40711
3118,6.236,2.39018
3119,6.238,2.38777
3120,6.24,2.39502
3121,6.242,2.39179
3122,6.244,2.38938
3123,6.246,2.38696
3124,6.248,2.39663
3125,6.25,2.38454
3126,6.252,2.38615
3127,6.254,2.38615
3128,6.256,2.38615
3129,6.258,2.38696
3130,6.26,2.38857
3131,6.262,2.40227
3132,6.264,2.39341
3133,6.266,2.40952
3134,6.268,2.38938
3135,6.27,2.40066
3136,6.272,2.39663
3137,6.274,2.39744
3138,6.276,2.39341
3139,6.278,2.40227
3140,6.28,2.40711
3141,6.282,2.40872
3142,6.284,2.40388
3143,6.286,2.40872
3144,6.288,2.39905
3145,6.29,2.38374
3146,6.292,2.38696
3147,6.294,2.38696
3148,6.296,2.39018
3149,6.298,2.39018
3150,6.3,2.38696
3151,6.302,2.39018
3152,6.304,2.39582
3153,6.306,2.39744
3154,6.308,2.38535
3155,6.31,2.38454
3156,6.312,2.38777
3157,6.314,2.3926
3158,6.316,2.40066
3159,6.318,2.38938
3160,6.32,2.39663
3161,6.322,2.39582
3162,6.324,2.39985
3163,6.326,2.4063
3164,6.328,2.41919
3165,6.33,2.4063
3166,6.332,2.40952
3167,6.334,2.40711
3168,6.336,2.41275
3169,6.338,2.40711
3170,6.34,2.39744
3171,6.342,2.38696
3172,6.344,2.39502
3173,6.346,2.40147
3174,6.348,2.39744
3175,6.35,2.38777
3176,6.352,2.38938
3177,6.354,2.39099
3178,6.356,2.38777
3179,6.358,2.40066
3180,6.36,2.38696
3181,6.362,2.38696
3182,6.364,2.38938
3183,6.366,2.38051
3184,6.368,2.37648
3185,6.37,2.39018
3186,6.372,2.38615
3187,6.374,2.38535
3188,6.376,2.3926
3189,6.378,2.39179
3190,6.38,2.40308
3191,6.382,2.41516
3192,6.384,2.4063
3193,6.386,2.41516
3194,6.388,2.41355
3195,6.39,2.40791
3196,6.392,2.41919
3197,6.394,2.41919
3198,6.396,2.42081
3199,6.398,2.42161
3200,6.4,2.43289
3201,6.402,2.42242
3202,6.404,2.43289
3203,6.406,2.43048
3204,6.408,2.43853
3205,6.41,2.43531
3206,6.412,2.42484
3207,6.414,2.42806
3208,6.416,2.43048
3209,6.418,2.42806
3210,6.42,2.42725
3211,6.422,2.42806
3212,6.424,2.43209
3213,6.426,2.43209
3214,6.428,2.44176
3215,6.43,2.42967
3216,6.432,2.43773
3217,6.434,2.42886
3218,6.436,2.44256
3219,6.438,2.41597
3220,6.44,2.42403
3221,6.442,2.42161
3222,6.444,2.41275
3223,6.446,2.41758
3224,6.448,2.41194
3225,6.45,2.41033
3226,6.452,2.42564
3227,6.454,2.42081
3228,6.456,2.41597
3229,6.458,2.41033
3230,6.46,2.41919
3231,6.462,2.42725
3232,6.464,2.42322
3233,6.466,2.43612
3234,6.468,2.44256
3235,6.47,2.44821
3236,6.472,2.45385
3237,6.474,2.46432
3238,6.476,2.47077
3239,6.478,2.503
3240,6.48,2.48608
3241,6.482,2.49253
3242,6.484,2.49897
3243,6.486,2.49656
3244,6.488,2.50381
3245,6.49,2.49817
3246,6.492,2.49656
3247,6.494,2.49414
3248,6.496,2.49011
3249,6.498,2.50139
3250,6.5,2.49897
3251,6.502,2.49575
3252,6.504,2.49253
3253,6.506,2.49011
3254,6.508,2.4885
3255,6.51,2.49011
3256,6.512,2.49172
3257,6.514,2.48205
3258,6.516,2.49253
3259,6.518,2.49575
3260,6.52,2.5022
3261,6.522,2.49253
3262,6.524,2.50381
3263,6.526,2.49656
3264,6.528,2.5159
3265,6.53,2.50784
3266,6.532,2.51187
3267,6.534,2.50784
3268,6.536,2.50623
3269,6.538,2.49575
3270,6.54,2.49736
3271,6.542,2.49656
3272,6.544,2.49011
3273,6.546,2.47077
3274,6.548,2.46996
3275,6.55,2.46593
3276,6.552,2.45707
3277,6.554,2.49092
3278,6.556,2.46674
3279,6.558,2.46432
3280,6.56,2.46271
3281,6.562,2.45143
3282,6.564,2.45465
3283,6.566,2.45707
3284,6.568,2.46432
3285,6.57,2.46029
3286,6.572,2.45062
3287,6.574,2.45465
3288,6.576,2.46432
3289,6.578,2.45465
3290,6.58,2.45304
3291,6.582,2.45465
3292,6.584,2.45626
3293,6.586,2.46029
3294,6.588,2.44901
3295,6.59,2.44256
3296,6.592,2.44095
3297,6.594,2.42322
3298,6.596,2.43289
3299,6.598,2.42081
3300,6.6,2.42
3301,6.602,2.43048
3302,6.604,2.42403
3303,6.606,2.42403
3304,6.608,2.40227
3305,6.61,2.38132
3306,6.612,2.3926
3307,6.614,2.40147
3308,6.616,2.40147
3309,6.618,2.38938
3310,6.62,2.39502
3311,6.622,2.40308
3312,6.624,2.40308
3313,6.626,2.40147
3314,6.628,2.40549
3315,6.63,2.39663
3316,6.632,2.39905
3317,6.634,2.39744
3318,6.636,2.39421
3319,6.638,2.39421
3320,6.64,2.38696
3321,6.642,2.37971
3322,6.644,2.38051
3323,6.646,2.36923
3324,6.648,2.37648
3325,6.65,2.37568
3326,6.652,2.36359
3327,6.654,2.36842
3328,6.656,2.37084
3329,6.658,2.35795
3330,6.66,2.36117
3331,6.662,2.36198
3332,6.664,2.37971
3333,6.666,2.36601
3334,6.668,2.37245
3335,6.67,2.35553
3336,6.672,2.3644
3337,6.674,2.36359
3338,6.676,2.37568
3339,6.678,2.37165
3340,6.68,2.37568
3341,6.682,2.37084
3342,6.684,2.37004
3343,6.686,2.36842
3344,6.688,2.36681
3345,6.69,2.39582
3346,6.692,2.35553
3347,6.694,2.36117
3348,6.696,2.36681
3349,6.698,2.35795
3350,6.7,2.35553
3351,6.702,2.36037
3352,6.704,2.35473
3353,6.706,2.35795
3354,6.708,2.35875
3355,6.71,2.35875
3356,6.712,2.35875
3357,6.714,2.36359
3358,6.716,2.36198
3359,6.718,2.37971
3360,6.72,2.3644
3361,6.722,2.3789
3362,6.724,2.37004
3363,6.726,2.36117
3364,6.728,2.36762
3365,6.73,2.38132
3366,6.732,2.38374
3367,6.734,2.37004
3368,6.736,2.37487
3369,6.738,2.36762
3370,6.74,2.37971
3371,6.742,2.38212
3372,6.744,2.39502
3373,6.746,2.37326
3374,6.748,2.37165
3375,6.75,2.36359
3376,6.752,2.3652
3377,6.754,2.3644
3378,6.756,2.36278
3379,6.758,2.36278
3380,6.76,2.36037
3381,6.762,2.36842
3382,6.764,2.37245
3383,6.766,2.36359
3384,6.768,2.36117
3385,6.77,2.38454
3386,6.772,2.37729
3387,6.774,2.38293
3388,6.776,2.38051
3389,6.778,2.37648
3390,6.78,2.38051
3391,6.782,2.38051
3392,6.784,2.39099
3393,6.786,2.38132
3394,6.788,2.37971
3395,6.79,2.38535
3396,6.792,2.39018
3397,6.794,2.38374
3398,6.796,2.37084
3399,6.798,2.37648
3400,6.8,2.38051
3401,6.802,2.37407
3402,6.804,2.36762
3403,6.806,2.36117
3404,6.808,2.35875
3405,6.81,2.35392
3406,6.812,2.35392
3407,6.814,2.34264
3408,6.816,2.35553
3409,6.818,2.34264
3410,6.82,2.34828
3411,6.822,2.34989
3412,6.824,2.3507
3413,6.826,2.36359
3414,6.828,2.35392
3415,6.83,2.36681
3416,6.832,2.36278
3417,6.834,2.35956
3418,6.836,2.36359
3419,6.838,2.37004
3420,6.84,2.37971
3421,6.842,2.37729
3422,6.844,2.37165
3423,6.846,2.38535
3424,6.848,2.37648
3425,6.85,2.37326
3426,6.852,2.36117
3427,6.854,2.35392
3428,6.856,2.36198
3429,6.858,2.36037
3430,6.86,2.3652
3431,6.862,2.36601
3432,6.864,2.37004
3433,6.866,2.38051
3434,6.868,2.38696
3435,6.87,2.38615
3436,6.872,2.39985
3437,6.874,2.42322
3438,6.876,2.44256
3439,6.878,2.4474
3440,6.88,2.43853
3441,6.882,2.43853
3442,6.884,2.43612
3443,6.886,2.44095
3444,6.888,2.44821
3445,6.89,2.43209
3446,6.892,2.44256
3447,6.894,2.44418
3448,6.896,2.46513
3449,6.898,2.49575
3450,6.9,2.53121
3451,6.902,2.54491
3452,6.904,2.57392
3453,6.906,2.58923
3454,6.908,2.61179
3455,6.91,2.64242
3456,6.912,2.6819
3457,6.914,2.71575
3458,6.916,2.7633
3459,6.918,2.82132
3460,6.92,2.88498
3461,6.922,2.94381
3462,6.924,2.99538
3463,6.926,3.07275
3464,6.928,3.14125
3465,6.93,3.19766
3466,6.932,3.20571
3467,6.934,3.21538
3468,6.936,3.2444
3469,6.938,3.27018
3470,6.94,3.28952
3471,6.942,3.3
3472,6.944,3.29597
3473,6.946,3.25407
3474,6.948,3.26132
3475,6.95,3.2726
3476,6.952,3.2315
3477,6.954,3.20249
3478,6.956,3.17187
3479,6.958,3.15011
3480,6.96,3.11546
3481,6.962,3.07194
3482,6.964,2.98491
3483,6.966,2.90513
3484,6.968,2.79875
3485,6.97,2.65934
3486,6.972,2.57392
3487,6.974,2.50945
3488,6.976,2.40469
3489,6.978,2.30073
3490,6.98,2.21612
3491,6.982,2.12586
3492,6.984,2.09766
3493,6.986,2.0622
3494,6.988,1.9937
3495,6.99,1.97597
3496,6.992,1.94615
3497,6.994,1.90989
3498,6.996,1.85993
3499,6.998,1.81963
3500,7.0,1.77773
3501,7.002,1.74469
3502,7.004,1.72535
3503,7.006,1.67136
3504,7.008,1.62623
3505,7.01,1.61736
3506,7.012,1.63831
3507,7.014,1.64154
3508,7.016,1.66652
3509,7.018,1.70601
3510,7.02,1.74388
3511,7.022,1.78337
3512,7.024,1.82608
3513,7.026,1.88974
3514,7.028,1.95099
3515,7.03,1.9937
3516,7.032,2.03722
3517,7.034,2.09604
3518,7.036,2.16212
3519,7.038,2.20886
3520,7.04,2.2959
3521,7.042,2.31846
3522,7.044,2.35795
3523,7.046,2.38132
3524,7.048,2.4063
3525,7.05,2.42564
3526,7.052,2.43048
3527,7.054,2.42725
3528,7.056,2.42886
3529,7.058,2.43048
3530,7.06,2.42161
3531,7.062,2.43853
3532,7.064,2.4474
3533,7.066,2.44498
3534,7.068,2.43773
3535,7.07,2.44256
3536,7.072,2.44821
3537,7.074,2.44015
3538,7.076,2.45707
3539,7.078,2.46755
3540,7.08,2.47158
3541,7.082,2.46916
3542,7.084,2.46432
3543,7.086,2.45707
3544,7.088,2.46432
3545,7.09,2.45788
3546,7.092,2.47319
3547,7.094,2.46674
3548,7.096,2.47077
3549,7.098,2.47963
3550,7.1,2.46996
3551,7.102,2.47641
3552,7.104,2.46271
3553,7.106,2.4756
3554,7.108,2.47238
3555,7.11,2.45949
3556,7.112,2.46271
3557,7.114,2.46271
3558,7.116,2.45868
3559,7.118,2.46593
3560,7.12,2.45707
3561,7.122,2.4619
3562,7.124,2.46755
3563,7.126,2.46916
3564,7.128,2.48125
3565,7.13,2.47319
3566,7.132,2.47399
3567,7.134,2.4893
3568,7.136,2.48286
3569,7.138,2.4885
3570,7.14,2.48527
3571,7.142,2.47963
3572,7.144,2.48447
3573,7.146,2.50864
3574,7.148,2.47883
3575,7.15,2.47963
3576,7.152,2.48205
3577,7.154,2.47238
3578,7.156,2.46755
3579,7.158,2.46029
3580,7.16,2.46352
3581,7.162,2.47399
3582,7.164,2.48044
3583,7.166,2.45949
3584,7.168,2.46916
3585,7.17,2.47238
3586,7.172,2.46755
3587,7.174,2.50703
3588,7.176,2.46916
3589,7.178,2.47158
3590,7.18,2.47802
3591,7.182,2.4748
3592,7.184,2.47722
3593,7.186,2.48366
3594,7.188,2.48447
3595,7.19,2.48769
3596,7.192,2.49656
3597,7.194,2.50462
3598,7.196,2.49736
3599,7.198,2.49011
3600,7.2,2.48769
3601,7.202,2.49172
3602,7.204,2.47883
3603,7.206,2.48366
3604,7.208,2.47963
3605,7.21,2.49414
3606,7.212,2.49575
3607,7.214,2.49575
3608,7.216,2.49333
3609,7.218,2.50462
3610,7.22,2.50139
3611,7.222,2.50462
3612,7.224,2.51187
3613,7.226,2.49978
3614,7.228,2.48608
3615,7.23,2.49011
3616,7.232,2.50139
3617,7.234,2.5159
3618,7.236,2.51348
3619,7.238,2.51832
3620,7.24,2.52396
3621,7.242,2.50945
3622,7.244,2.50462
3623,7.246,2.51348
3624,7.248,2.51348
3625,7.25,2.49333
3626,7.252,2.48769
3627,7.254,2.49172
3628,7.256,2.53363
3629,7.258,2.51509
3630,7.26,2.50945
3631,7.262,2.49575
3632,7.264,2.49253
3633,7.266,2.50542
3634,7.268,2.51993
3635,7.27,2.5159
3636,7.272,2.50864
3637,7.274,2.52396
3638,7.276,2.52879
3639,7.278,2.53524
3640,7.28,2.52234
3641,7.282,2.49414
3642,7.284,2.56667
3643,7.286,2.55458
3644,7.288,2.55619
3645,7.29,2.557
3646,7.292,2.57392
3647,7.294,2.59568
3648,7.296,2.56103
3649,7.298,2.56989
3650,7.3,2.55861
3651,7.302,2.56747
3652,7.304,2.5578
3653,7.306,2.5433
3654,7.308,2.5433
3655,7.31,2.51751
3656,7.312,2.53766
3657,7.314,2.5441
3658,7.316,2.56103
3659,7.318,2.5441
3660,7.32,2.55136
3661,7.322,2.56103
3662,7.324,2.53927
3663,7.326,2.5441
3664,7.328,2.54813
3665,7.33,2.54007
3666,7.332,2.55055
3667,7.334,2.56103
3668,7.336,2.55619
3669,7.338,2.53766
3670,7.34,2.5578
3671,7.342,2.55458
3672,7.344,2.56344
3673,7.346,2.56344
3674,7.348,2.557
3675,7.35,2.56264
3676,7.352,2.57875
3677,7.354,2.5707
3678,7.356,2.55861
3679,7.358,2.57231
3680,7.36,2.5707
3681,7.362,2.57875
3682,7.364,2.57473
3683,7.366,2.57875
3684,7.368,2.56828
3685,7.37,2.56667
3686,7.372,2.56425
3687,7.374,2.56264
3688,7.376,2.57714
3689,7.378,2.58601
3690,7.38,2.60051
3691,7.382,2.59971
3692,7.384,2.58923
3693,7.386,2.59326
3694,7.388,2.59407
3695,7.39,2.60938
3696,7.392,2.60938
3697,7.394,2.62711
3698,7.396,2.61179
3699,7.398,2.58117
3700,7.4,2.60132
3701,7.402,2.60454
3702,7.404,2.59245
3703,7.406,2.59971
3704,7.408,2.60454
3705,7.41,2.6126
3706,7.412,2.60777
3707,7.414,2.60615
3708,7.416,2.61663
3709,7.418,2.60857
3710,7.42,2.61179
3711,7.422,2.62549
3712,7.424,2.62147
3713,7.426,2.62469
3714,7.428,2.62549
3715,7.43,2.63114
3716,7.432,2.64081
3717,7.434,2.64806
3718,7.436,2.64967
3719,7.438,2.64564
3720,7.44,2.63033
3721,7.442,2.63275
3722,7.444,2.64242
3723,7.446,2.64886
3724,7.448,2.65612
3725,7.45,2.67143
3726,7.452,2.63516
3727,7.454,2.63839
3728,7.456,2.64322
3729,7.458,2.64484
3730,7.46,2.64081
3731,7.462,2.64725
3732,7.464,2.65128
3733,7.466,2.64242
3734,7.468,2.63919
3735,7.47,2.64564
3736,7.472,2.65451
3737,7.474,2.65692
3738,7.476,2.67304
3739,7.478,2.65289
3740,7.48,2.65773
3741,7.482,2.67143
3742,7.484,2.66659
3743,7.486,2.67626
3744,7.488,2.67223
3745,7.49,2.67707
3746,7.492,2.66337
3747,7.494,2.68593
3748,7.496,2.68674
3749,7.498,2.68593
3750,7.5,2.69883
3751,7.502,2.69158
3752,7.504,2.71656
3753,7.506,2.69641
3754,7.508,2.70286
3755,7.51,2.69077
3756,7.512,2.6948
3757,7.514,2.6948
3758,7.516,2.68916
3759,7.518,2.69802
3760,7.52,2.70447
3761,7.522,2.70125
3762,7.524,2.7085
3763,7.526,2.71092
3764,7.528,2.73106
3765,7.53,2.74476
3766,7.532,2.73509
3767,7.534,2.74154
3768,7.536,2.74799
3769,7.538,2.74154
3770,7.54,2.75524
3771,7.542,2.75443
3772,7.544,2.75524
3773,7.546,2.75121
3774,7.548,2.75846
3775,7.55,2.7504
3776,7.552,2.7504
3777,7.554,2.75927
3778,7.556,2.77216
3779,7.558,2.76571
3780,7.56,2.78425
3781,7.562,2.7641
3782,7.564,2.75524
3783,7.566,2.74879
3784,7.568,2.73751
3785,7.57,2.74557
3786,7.572,2.76652
3787,7.574,2.76249
3788,7.576,2.75282
3789,7.578,2.75201
3790,7.58,2.76249
3791,7.582,2.76249
3792,7.584,2.76491
3793,7.586,2.76571
3794,7.588,2.77136
3795,7.59,2.76974
3796,7.592,2.78425
3797,7.594,2.77377
3798,7.596,2.77861
3799,7.598,2.78183
3800,7.6,2.78667
3801,7.602,2.78747
3802,7.604,2.78586
3803,7.606,2.79311
3804,7.608,2.78828
3805,7.61,2.76813
3806,7.612,2.76249
3807,7.614,2.75766
3808,7.616,2.74557
3809,7.618,2.76249
3810,7.62,2.76007
3811,7.622,2.76168
3812,7.624,2.75443
3813,7.626,2.76249
3814,7.628,2.76168
3815,7.63,2.76249
3816,7.632,2.76652
3817,7.634,2.77216
3818,7.636,2.77297
3819,7.638,2.77377
3820,7.64,2.78667
3821,7.642,2.7915
3822,7.644,2.79473
3823,7.646,2.78908
3824,7.648,2.78103
3825,7.65,2.77538
3826,7.652,2.77619
3827,7.654,2.77861
3828,7.656,2.77619
3829,7.658,2.77538
3830,7.66,2.77377
3831,7.662,2.76571
3832,7.664,2.78103
3833,7.666,2.76652
3834,7.668,2.75524
3835,7.67,2.76894
3836,7.672,2.7504
3837,7.674,2.75846
3838,7.676,2.7496
3839,7.678,2.75121
3840,7.68,2.75363
3841,7.682,2.74718
3842,7.684,2.7504
3843,7.686,2.75443
3844,7.688,2.75846
3845,7.69,2.75604
3846,7.692,2.73751
3847,7.694,2.74154
3848,7.696,2.74154
3849,7.698,2.73751
3850,7.7,2.73187
3851,7.702,2.73106
3852,7.704,2.72784
3853,7.706,2.72864
3854,7.708,2.71092
3855,7.71,2.70366
3856,7.712,2.69399
3857,7.714,2.68916
3858,7.716,2.6948
3859,7.718,2.68432
3860,7.72,2.68029
3861,7.722,2.67707
3862,7.724,2.68755
3863,7.726,2.67304
3864,7.728,2.67223
3865,7.73,2.66821
3866,7.732,2.66982
3867,7.734,2.66015
3868,7.736,2.64242
3869,7.738,2.6537
3870,7.74,2.65289
3871,7.742,2.64322
3872,7.744,2.65531
3873,7.746,2.66418
3874,7.748,2.64806
3875,7.75,2.65048
3876,7.752,2.64322
3877,7.754,2.63678
3878,7.756,2.62388
3879,7.758,2.61905
3880,7.76,2.61744
3881,7.762,2.60938
3882,7.764,2.60454
3883,7.766,2.60051
3884,7.768,2.58762
3885,7.77,2.59568
3886,7.772,2.58198
3887,7.774,2.58681
3888,7.776,2.57956
3889,7.778,2.56183
3890,7.78,2.58198
3891,7.782,2.56747
3892,7.784,2.56989
3893,7.786,2.56747
3894,7.788,2.56022
3895,7.79,2.55297
3896,7.792,2.56103
3897,7.794,2.55538
3898,7.796,2.55136
3899,7.798,2.53766
3900,7.8,2.53766
3901,7.802,2.52315
3902,7.804,2.52234
3903,7.806,2.53524
3904,7.808,2.52234
3905,7.81,2.50945
3906,7.812,2.50864
3907,7.814,2.49736
3908,7.816,2.50139
3909,7.818,2.49575
3910,7.82,2.48447
3911,7.822,2.48286
3912,7.824,2.46996
3913,7.826,2.48447
3914,7.828,2.47399
3915,7.83,2.47238
3916,7.832,2.4748
3917,7.834,2.47722
3918,7.836,2.48125
3919,7.838,2.4748
3920,7.84,2.48447
3921,7.842,2.47963
3922,7.844,2.47722
3923,7.846,2.47158
3924,7.848,2.46755
3925,7.85,2.44982
3926,7.852,2.45143
3927,7.854,2.44901
3928,7.856,2.42886
3929,7.858,2.44337
3930,7.86,2.42645
3931,7.862,2.4337
3932,7.864,2.43209
3933,7.866,2.42725
3934,7.868,2.43531
3935,7.87,2.43773
3936,7.872,2.43451
3937,7.874,2.42322
3938,7.876,2.43853
3939,7.878,2.42886
3940,7.88,2.43209
3941,7.882,2.42564
3942,7.884,2.41919
3943,7.886,2.42564
3944,7.888,2.42322
3945,7.89,2.46432
3946,7.892,2.43289
3947,7.894,2.43289
3948,7.896,2.43853
3949,7.898,2.43128
3950,7.9,2.42806
3951,7.902,2.43934
3952,7.904,2.43209
3953,7.906,2.42081
3954,7.908,2.42322
3955,7.91,2.42564
3956,7.912,2.41678
3957,7.914,2.41516
3958,7.916,2.41355
3959,7.918,2.43209
3960,7.92,2.43128
3961,7.922,2.42161
3962,7.924,2.42081
3963,7.926,2.42725
3964,7.928,2.41758
3965,7.93,2.41516
3966,7.932,2.42484
3967,7.934,2.42725
3968,7.936,2.42
3969,7.938,2.41758
3970,7.94,2.43209
3971,7.942,2.43128
3972,7.944,2.43209
3973,7.946,2.45062
3974,7.948,2.43289
3975,7.95,2.42806
3976,7.952,2.43209
3977,7.954,2.42403
3978,7.956,2.41194
3979,7.958,2.41194
3980,7.96,2.40227
3981,7.962,2.42161
3982,7.964,2.42564
3983,7.966,2.43048
3984,7.968,2.43773
3985,7.97,2.43128
3986,7.972,2.42967
3987,7.974,2.42806
3988,7.976,2.41194
3989,7.978,2.42322
3990,7.98,2.41355
3991,7.982,2.41597
3992,7.984,2.42403
3993,7.986,2.4063
3994,7.988,2.41758
3995,7.99,2.41436
3996,7.992,2.43289
3997,7.994,2.43451
3998,7.996,2.43128
3999,7.998,2.42
4000,8.0,2.43934
4001,8.002,2.43209
4002,8.004,2.43209
4003,8.006,2.41516
4004,8.008,2.41355
4005,8.01,2.42161
4006,8.012,2.42886
4007,8.014,2.43209
4008,8.016,2.42725
4009,8.018,2.42886
4010,8.02,2.43128
4011,8.022,2.42242
4012,8.024,2.42967
4013,8.026,2.43692
4014,8.028,2.42564
4015,8.03,2.42886
4016,8.032,2.43612
4017,8.034,2.43128
4018,8.036,2.43209
4019,8.038,2.43209
4020,8.04,2.44498
4021,8.042,2.44821
4022,8.044,2.43612
4023,8.046,2.43934
4024,8.048,2.42806
4025,8.05,2.43451
4026,8.052,2.42081
4027,8.054,2.42161
4028,8.056,2.44015
4029,8.058,2.41516
4030,8.06,2.42967
4031,8.062,2.42564
4032,8.064,2.41919
4033,8.066,2.40388
4034,8.068,2.40711
4035,8.07,2.41114
4036,8.072,2.41758
4037,8.074,2.41194
4038,8.076,2.41758
4039,8.078,2.41919
4040,8.08,2.41678
4041,8.082,2.41839
4042,8.084,2.45062
4043,8.086,2.42081
4044,8.088,2.41597
4045,8.09,2.41516
4046,8.092,2.41275
4047,8.094,2.42725
4048,8.096,2.42886
4049,8.098,2.42886
4050,8.1,2.42806
4051,8.102,2.42322
4052,8.104,2.42564
4053,8.106,2.42081
4054,8.108,2.41436
4055,8.11,2.40549
4056,8.112,2.43612
4057,8.114,2.4063
4058,8.116,2.39985
4059,8.118,2.40549
4060,8.12,2.40952
4061,8.122,2.4063
4062,8.124,2.39985
4063,8.126,2.39582
4064,8.128,2.40147
4065,8.13,2.39018
4066,8.132,2.39663
4067,8.134,2.40549
4068,8.136,2.40469
4069,8.138,2.42161
4070,8.14,2.41919
4071,8.142,2.4063
4072,8.144,2.40872
4073,8.146,2.41516
4074,8.148,2.41033
4075,8.15,2.41516
4076,8.152,2.41033
4077,8.154,2.40147
4078,8.156,2.40549
4079,8.158,2.39502
4080,8.16,2.40308
4081,8.162,2.39905
4082,8.164,2.40549
4083,8.166,2.40066
4084,8.168,2.39985
4085,8.17,2.40952
4086,8.172,2.39663
4087,8.174,2.4063
4088,8.176,2.40549
4089,8.178,2.40147
4090,8.18,2.40872
4091,8.182,2.41839
4092,8.184,2.41758
4093,8.186,2.42081
4094,8.188,2.42242
4095,8.19,2.41919
4096,8.192,2.42645
4097,8.194,2.42161
4098,8.196,2.42564
4099,8.198,2.43128
4100,8.2,2.4337
4101,8.202,2.42242
4102,8.204,2.42967
4103,8.206,2.42403
4104,8.208,2.41275
4105,8.21,2.41275
4106,8.212,2.41033
4107,8.214,2.40872
4108,8.216,2.41436
4109,8.218,2.42081
4110,8.22,2.41436
4111,8.222,2.41355
4112,8.224,2.40147
4113,8.226,2.40549
4114,8.228,2.39824
4115,8.23,2.39582
4116,8.232,2.38777
4117,8.234,2.39018
4118,8.236,2.39018
4119,8.238,2.39179
4120,8.24,2.39099
4121,8.242,2.3926
4122,8.244,2.39421
4123,8.246,2.40066
4124,8.248,2.40227
4125,8.25,2.39018
4126,8.252,2.38454
4127,8.254,2.39341
4128,8.256,2.39582
4129,8.258,2.38051
4130,8.26,2.38132
4131,8.262,2.38938
4132,8.264,2.38857
4133,8.266,2.38535
4134,8.268,2.39099
4135,8.27,2.38454
4136,8.272,2.39179
4137,8.274,2.38938
4138,8.276,2.43289
4139,8.278,2.39663
4140,8.28,2.40952
4141,8.282,2.40711
4142,8.284,2.41275
4143,8.286,2.42564
4144,8.288,2.41839
4145,8.29,2.41839
4146,8.292,2.41033
4147,8.294,2.41516
4148,8.296,2.41839
4149,8.298,2.43451
4150,8.3,2.41678
4151,8.302,2.42322
4152,8.304,2.43209
4153,8.306,2.42725
4154,8.308,2.41597
4155,8.31,2.40227
4156,8.312,2.39582
4157,8.314,2.40227
4158,8.316,2.39582
4159,8.318,2.40388
4160,8.32,2.40549
4161,8.322,2.39663
4162,8.324,2.38938
4163,8.326,2.39663
4164,8.328,2.39099
4165,8.33,2.39099
4166,8.332,2.40227
4167,8.334,2.38857
4168,8.336,2.37971
4169,8.338,2.38454
4170,8.34,2.39099
4171,8.342,2.39018
4172,8.344,2.39341
4173,8.346,2.38857
4174,8.348,2.39018
4175,8.35,2.38051
4176,8.352,2.39341
4177,8.354,2.38938
4178,8.356,2.38051
4179,8.358,2.39824
4180,8.36,2.40791
4181,8.362,2.39179
4182,8.364,2.38938
4183,8.366,2.39099
4184,8.368,2.39663
4185,8.37,2.40952
4186,8.372,2.41114
4187,8.374,2.40066
4188,8.376,2.39744
4189,8.378,2.40872
4190,8.38,2.39421
4191,8.382,2.40469
4192,8.384,2.40227
4193,8.386,2.41839
4194,8.388,2.40872
4195,8.39,2.42161
4196,8.392,2.42403
4197,8.394,2.41516
4198,8.396,2.39421
4199,8.398,2.40147
4200,8.4,2.40147
4201,8.402,2.41275
4202,8.404,2.40388
4203,8.406,2.40308
4204,8.408,2.41194
4205,8.41,2.40227
4206,8.412,2.40308
4207,8.414,2.41919
4208,8.416,2.39099
4209,8.418,2.39744
4210,8.42,2.38454
4211,8.422,2.39502
4212,8.424,2.3926
4213,8.426,2.38535
4214,8.428,2.38696
4215,8.43,2.39179
4216,8.432,2.39663
4217,8.434,2.41114
4218,8.436,2.40147
4219,8.438,2.40227
4220,8.44,2.39421
4221,8.442,2.39824
4222,8.444,2.40147
4223,8.446,2.40469
4224,8.448,2.4063
4225,8.45,2.40711
4226,8.452,2.39341
4227,8.454,2.39341
4228,8.456,2.40066
4229,8.458,2.39663
4230,8.46,2.39099
4231,8.462,2.38938
4232,8.464,2.38535
4233,8.466,2.39421
4234,8.468,2.38938
4235,8.47,2.38615
4236,8.472,2.38857
4237,8.474,2.39744
4238,8.476,2.39341
4239,8.478,2.40147
4240,8.48,2.39099
4241,8.482,2.3926
4242,8.484,2.39421
4243,8.486,2.39502
4244,8.488,2.39985
4245,8.49,2.39985
4246,8.492,2.42161
4247,8.494,2.40791
4248,8.496,2.41194
4249,8.498,2.41597
4250,8.5,2.40872
4251,8.502,2.41678
4252,8.504,2.40872
4253,8.506,2.41033
4254,8.508,2.40227
4255,8.51,2.40227
4256,8.512,2.40872
4257,8.514,2.40872
4258,8.516,2.40227
4259,8.518,2.40549
4260,8.52,2.40549
4261,8.522,2.38777
4262,8.524,2.39905
4263,8.526,2.39421
4264,8.528,2.39663
4265,8.53,2.40872
4266,8.532,2.40711
4267,8.534,2.40872
4268,8.536,2.41678
4269,8.538,2.40147
4270,8.54,2.40549
4271,8.542,2.40388
4272,8.544,2.39099
4273,8.546,2.42403
4274,8.548,2.40147
4275,8.55,2.40711
4276,8.552,2.39099
4277,8.554,2.38696
4278,8.556,2.39663
4279,8.558,2.39421
4280,8.56,2.40791
4281,8.562,2.40791
4282,8.564,2.40227
4283,8.566,2.39985
4284,8.568,2.39985
4285,8.57,2.38938
4286,8.572,2.4063
4287,8.574,2.39744
4288,8.576,2.39582
4289,8.578,2.39744
4290,8.58,2.40227
4291,8.582,2.39744
4292,8.584,2.40147
4293,8.586,2.38938
4294,8.588,2.3926
4295,8.59,2.39341
4296,8.592,2.39502
4297,8.594,2.39421
4298,8.596,2.40711
4299,8.598,2.40952
4300,8.6,2.42806
4301,8.602,2.41839
4302,8.604,2.40952
4303,8.606,2.40711
4304,8.608,2.41114
4305,8.61,2.40227
4306,8.612,2.39663
4307,8.614,2.39985
4308,8.616,2.40952
4309,8.618,2.39744
4310,8.62,2.40308
4311,8.622,2.39582
4312,8.624,2.40227
4313,8.626,2.4337
4314,8.628,2.40791
4315,8.63,2.4063
4316,8.632,2.40066
4317,8.634,2.39985
4318,8.636,2.40952
4319,8.638,2.4063
4320,8.64,2.42564
4321,8.642,2.41033
4322,8.644,2.41033
4323,8.646,2.41114
4324,8.648,2.41114
4325,8.65,2.42322
4326,8.652,2.44982
4327,8.654,2.42564
4328,8.656,2.42806
4329,8.658,2.43209
4330,8.66,2.43451
4331,8.662,2.42886
4332,8.664,2.42484
4333,8.666,2.41275
4334,8.668,2.41436
4335,8.67,2.40791
4336,8.672,2.40791
4337,8.674,2.40469
4338,8.676,2.41033
4339,8.678,2.40952
4340,8.68,2.40711
4341,8.682,2.41275
4342,8.684,2.40711
4343,8.686,2.39985
4344,8.688,2.39985
4345,8.69,2.40388
4346,8.692,2.41355
4347,8.694,2.41919
4348,8.696,2.41919
4349,8.698,2.42564
4350,8.7,2.41758
4351,8.702,2.41516
4352,8.704,2.43209
4353,8.706,2.41516
4354,8.708,2.41355
4355,8.71,2.40711
4356,8.712,2.40308
4357,8.714,2.40066
4358,8.716,2.40147
4359,8.718,2.39582
4360,8.72,2.40227
4361,8.722,2.40066
4362,8.724,2.39099
4363,8.726,2.40147
4364,8.728,2.39341
4365,8.73,2.38857
4366,8.732,2.39179
4367,8.734,2.38696
4368,8.736,2.39582
4369,8.738,2.40711
4370,8.74,2.41033
4371,8.742,2.42403
4372,8.744,2.41516
4373,8.746,2.42403
4374,8.748,2.42403
4375,8.75,2.43209
4376,8.752,2.43209
4377,8.754,2.43289
4378,8.756,2.44095
4379,8.758,2.44015
4380,8.76,2.42322
4381,8.762,2.43128
4382,8.764,2.42
4383,8.766,2.42
4384,8.768,2.42403
4385,8.77,2.41436
4386,8.772,2.42
4387,8.774,2.41436
4388,8.776,2.41355
4389,8.778,2.42081
4390,8.78,2.42322
4391,8.782,2.42242
4392,8.784,2.42322
4393,8.786,2.46996
4394,8.788,2.45143
4395,8.79,2.44015
4396,8.792,2.45546
4397,8.794,2.46352
4398,8.796,2.46029
4399,8.798,2.46352
4400,8.8,2.46029
4401,8.802,2.46271
4402,8.804,2.46029
4403,8.806,2.47319
4404,8.808,2.47238
4405,8.81,2.46432
4406,8.812,2.44901
4407,8.814,2.48125
4408,8.816,2.45788
4409,8.818,2.45868
4410,8.82,2.43853
4411,8.822,2.44095
4412,8.824,2.44095
4413,8.826,2.43612
4414,8.828,2.43853
4415,8.83,2.45143
4416,8.832,2.44418
4417,8.834,2.44256
4418,8.836,2.44498
4419,8.838,2.45304
4420,8.84,2.44337
4421,8.842,2.44498
4422,8.844,2.45707
4423,8.846,2.45143
4424,8.848,2.45465
4425,8.85,2.47399
4426,8.852,2.46835
4427,8.854,2.47158
4428,8.856,2.46513
4429,8.858,2.45546
4430,8.86,2.45465
4431,8.862,2.44901
4432,8.864,2.45304
4433,8.866,2.43692
4434,8.868,2.45223
4435,8.87,2.44982
4436,8.872,2.46029
4437,8.874,2.46432
4438,8.876,2.4619
4439,8.878,2.47883
4440,8.88,2.47722
4441,8.882,2.49897
4442,8.884,2.49817
4443,8.886,2.50462
4444,8.888,2.51267
4445,8.89,2.51751
4446,8.892,2.51832
4447,8.894,2.51912
4448,8.896,2.54491
4449,8.898,2.53282
4450,8.9,2.53685
4451,8.902,2.53685
4452,8.904,2.53846
4453,8.906,2.53846
4454,8.908,2.5304
4455,8.91,2.53846
4456,8.912,2.52396
4457,8.914,2.51267
4458,8.916,2.5304
4459,8.918,2.52637
4460,8.92,2.52073
4461,8.922,2.52154
4462,8.924,2.51751
4463,8.926,2.52073
4464,8.928,2.51267
4465,8.93,2.52073
4466,8.932,2.5167
4467,8.934,2.50945
4468,8.936,2.51348
4469,8.938,2.52396
4470,8.94,2.51509
4471,8.942,2.5159
4472,8.944,2.52073
4473,8.946,2.52476
4474,8.948,2.52879
4475,8.95,2.54733
4476,8.952,2.52476
4477,8.954,2.51751
4478,8.956,2.51106
4479,8.958,2.503
4480,8.96,2.503
4481,8.962,2.49978
4482,8.964,2.49575
4483,8.966,2.49253
4484,8.968,2.4885
4485,8.97,2.47963
4486,8.972,2.47963
4487,8.974,2.46674
4488,8.976,2.44901
4489,8.978,2.4893
4490,8.98,2.47399
4491,8.982,2.46755
4492,8.984,2.46432
4493,8.986,2.46593
4494,8.988,2.44579
4495,8.99,2.4619
4496,8.992,2.46674
4497,8.994,2.45868
4498,8.996,2.44901
4499,8.998,2.4474
4500,9.0,2.4611
4501,9.002,2.46029
4502,9.004,2.45626
4503,9.006,2.44982
4504,9.008,2.43853
4505,9.01,2.44095
4506,9.012,2.42564
4507,9.014,2.43128
4508,9.016,2.42806
4509,9.018,2.43209
4510,9.02,2.42161
4511,9.022,2.40872
4512,9.024,2.40549
4513,9.026,2.40227
4514,9.028,2.40872
4515,9.03,2.40711
4516,9.032,2.42242
4517,9.034,2.40952
4518,9.036,2.40711
4519,9.038,2.41033
4520,9.04,2.41839
4521,9.042,2.40469
4522,9.044,2.4063
4523,9.046,2.4063
4524,9.048,2.40147
4525,9.05,2.4063
4526,9.052,2.39744
4527,9.054,2.40952
4528,9.056,2.40388
4529,9.058,2.38938
4530,9.06,2.39744
4531,9.062,2.37971
4532,9.064,2.38374
4533,9.066,2.38938
4534,9.068,2.38696
4535,9.07,2.39421
4536,9.072,2.38615
4537,9.074,2.3926
4538,9.076,2.3789
4539,9.078,2.38535
4540,9.08,2.38454
4541,9.082,2.37487
4542,9.084,2.37971
4543,9.086,2.40952
4544,9.088,2.38293
4545,9.09,2.39099
4546,9.092,2.38293
4547,9.094,2.38938
4548,9.096,2.39744
4549,9.098,2.39421
4550,9.1,2.38777
4551,9.102,2.38696
4552,9.104,2.38454
4553,9.106,2.37487
4554,9.108,2.39341
4555,9.11,2.38938
4556,9.112,2.37971
4557,9.114,2.38132
4558,9.116,2.38535
4559,9.118,2.38293
4560,9.12,2.36842
4561,9.122,2.36842
4562,9.124,2.37245
4563,9.126,2.3652
4564,9.128,2.36762
4565,9.13,2.37971
4566,9.132,2.38293
4567,9.134,2.38293
4568,9.136,2.38696
4569,9.138,2.38938
4570,9.14,2.38615
4571,9.142,2.38777
4572,9.144,2.39018
4573,9.146,2.40227
4574,9.148,2.40549
4575,9.15,2.40147
4576,9.152,2.4063
4577,9.154,2.3926
4578,9.156,2.39905
4579,9.158,2.39985
4580,9.16,2.39502
4581,9.162,2.39582
4582,9.164,2.38857
4583,9.166,2.41194
4584,9.168,2.40308
4585,9.17,2.39582
4586,9.172,2.38696
4587,9.174,2.38535
4588,9.176,2.39018
4589,9.178,2.38615
4590,9.18,2.38132
4591,9.182,2.37648
4592,9.184,2.38857
4593,9.186,2.38454
4594,9.188,2.38696
4595,9.19,2.38857
4596,9.192,2.39905
4597,9.194,2.39341
4598,9.196,2.39341
4599,9.198,2.39341
4600,9.2,2.40227
4601,9.202,2.4063
4602,9.204,2.40388
4603,9.206,2.40791
4604,9.208,2.39985
4605,9.21,2.40227
4606,9.212,2.38696
4607,9.214,2.38696
4608,9.216,2.3926
4609,9.218,2.39341
4610,9.22,2.39985
4611,9.222,2.40469
4612,9.224,2.39905
4613,9.226,2.39421
4614,9.228,2.39502
4615,9.23,2.39663
4616,9.232,2.39905
4617,9.234,2.40308
4618,9.236,2.39744
4619,9.238,2.39985
4620,9.24,2.40549
4621,9.242,2.40147
4622,9.244,2.40147
4623,9.246,2.41436
4624,9.248,2.40549
4625,9.25,2.40872
4626,9.252,2.41194
4627,9.254,2.41194
4628,9.256,2.41678
4629,9.258,2.42081
4630,9.26,2.42725
4631,9.262,2.41678
4632,9.264,2.41839
4633,9.266,2.41919
4634,9.268,2.41678
4635,9.27,2.41516
4636,9.272,2.45385
4637,9.274,2.42806
4638,9.276,2.43451
4639,9.278,2.43209
4640,9.28,2.43209
4641,9.282,2.41919
4642,9.284,2.42806
4643,9.286,2.43209
4644,9.288,2.43773
4645,9.29,2.44256
4646,9.292,2.44982
4647,9.294,2.47641
4648,9.296,2.5022
4649,9.298,2.53443
4650,9.3,2.56183
4651,9.302,2.58923
4652,9.304,2.62066
4653,9.306,2.65612
4654,9.308,2.67949
4655,9.31,2.70608
4656,9.312,2.75282
4657,9.314,2.78908
4658,9.316,2.84711
4659,9.318,2.91158
4660,9.32,2.98249
4661,9.322,3.04696
4662,9.324,3.10256
4663,9.326,3.16381
4664,9.328,3.23231
4665,9.33,3.29597
4666,9.332,3.3
4667,9.334,3.3
4668,9.336,3.3
4669,9.338,3.3
4670,9.34,3.3
4671,9.342,3.3
4672,9.344,3.3
4673,9.346,3.3
4674,9.348,3.3
4675,9.35,3.3
4676,9.352,3.3
4677,9.354,3.3
4678,9.356,3.26212
4679,9.358,3.23795
4680,9.36,3.1896
4681,9.362,3.11304
4682,9.364,2.97201
4683,9.366,2.86403
4684,9.368,2.73106
4685,9.37,2.61099
4686,9.372,2.51348
4687,9.374,2.41678
4688,9.376,2.32007
4689,9.378,2.22498
4690,9.38,2.11538
4691,9.382,2.07026
4692,9.384,2.0356
4693,9.386,1.98967
4694,9.388,1.93165
4695,9.39,1.88249
4696,9.392,1.87685
4697,9.394,1.83656
4698,9.396,1.80674
4699,9.398,1.79949
4700,9.4,1.75758
4701,9.402,1.72535
4702,9.404,1.68022
4703,9.406,1.64637
4704,9.408,1.62542
4705,9.41,1.623
4706,9.412,1.65685
4707,9.414,1.64879
4708,9.416,1.67216
4709,9.418,1.71084
4710,9.42,1.76081
4711,9.422,1.81722
4712,9.424,1.86557
4713,9.426,1.9244
4714,9.428,1.97516
4715,9.43,2.03238
4716,9.432,2.07187
4717,9.434,2.11055
4718,9.436,2.15407
4719,9.438,2.22821
4720,9.44,2.26769
4721,9.442,2.30879
4722,9.444,2.37245
4723,9.446,2.41758
4724,9.448,2.44901
4725,9.45,2.47238
4726,9.452,2.48769
4727,9.454,2.48447
4728,9.456,2.46916
4729,9.458,2.46835
4730,9.46,2.47883
4731,9.462,2.48689
4732,9.464,2.49092
4733,9.466,2.50462
4734,9.468,2.48125
4735,9.47,2.4893
4736,9.472,2.47963
4737,9.474,2.48286
4738,9.476,2.49172
4739,9.478,2.49656
4740,9.48,2.49253
4741,9.482,2.49092
4742,9.484,2.49011
4743,9.486,2.48044
4744,9.488,2.48769
4745,9.49,2.48044
4746,9.492,2.48286
4747,9.494,2.50623
4748,9.496,2.49817
4749,9.498,2.50139
4750,9.5,2.50864
4751,9.502,2.52154
4752,9.504,2.51509
4753,9.506,2.5159
4754,9.508,2.50864
4755,9.51,2.50864
4756,9.512,2.50864
4757,9.514,2.51348
4758,9.516,2.51187
4759,9.518,2.50945
4760,9.52,2.50542
4761,9.522,2.51509
4762,9.524,2.50864
4763,9.526,2.503
4764,9.528,2.49978
4765,9.53,2.49414
4766,9.532,2.49253
4767,9.534,2.49333
4768,9.536,2.49897
4769,9.538,2.49817
4770,9.54,2.49978
4771,9.542,2.49575
4772,9.544,2.5022
4773,9.546,2.50945
4774,9.548,2.50381
4775,9.55,2.50864
4776,9.552,2.51348
4777,9.554,2.51509
4778,9.556,2.52234
4779,9.558,2.51912
4780,9.56,2.52557
4781,9.562,2.52396
4782,9.564,2.51187
4783,9.566,2.50784
4784,9.568,2.50703
4785,9.57,2.50784
4786,9.572,2.50864
4787,9.574,2.50864
4788,9.576,2.50864
4789,9.578,2.53121
4790,9.58,2.51106
4791,9.582,2.52476
4792,9.584,2.51106
4793,9.586,2.50542
4794,9.588,2.49817
4795,9.59,2.51187
4796,9.592,2.51026
4797,9.594,2.5159
4798,9.596,2.51509
4799,9.598,2.50945
4800,9.6,2.52073
4801,9.602,2.52637
4802,9.604,2.53121
4803,9.606,2.53363
4804,9.608,2.53443
4805,9.61,2.53524
4806,9.612,2.53604
4807,9.614,2.53604
4808,9.616,2.53846
4809,9.618,2.5441
4810,9.62,2.55216
4811,9.622,2.55136
4812,9.624,2.55297
4813,9.626,2.54894
4814,9.628,2.54974
4815,9.63,2.54249
4816,9.632,2.55136
4817,9.634,2.55458
4818,9.636,2.55055
4819,9.638,2.54733
4820,9.64,2.557
4821,9.642,2.55458
4822,9.644,2.5441
4823,9.646,2.53927
4824,9.648,2.56103
4825,9.65,2.55619
4826,9.652,2.55458
4827,9.654,2.56103
4828,9.656,2.55619
4829,9.658,2.55055
4830,9.66,2.56103
4831,9.662,2.55861
4832,9.664,2.56747
4833,9.666,2.57473
4834,9.668,2.56747
4835,9.67,2.56989
4836,9.672,2.56586
4837,9.674,2.56667
4838,9.676,2.55216
4839,9.678,2.56425
4840,9.68,2.557
4841,9.682,2.55861
4842,9.684,2.55055
4843,9.686,2.58681
4844,9.688,2.55458
4845,9.69,2.56747
4846,9.692,2.55458
4847,9.694,2.55136
4848,9.696,2.56747
4849,9.698,2.56908
4850,9.7,2.56747
4851,9.702,2.58359
4852,9.704,2.5844
4853,9.706,2.59326
4854,9.708,2.60051
4855,9.71,2.59648
4856,9.712,2.58681
4857,9.714,2.60938
4858,9.716,2.5981
4859,9.718,2.59729
4860,9.72,2.59407
4861,9.722,2.58601
4862,9.724,2.58359
4863,9.726,2.59245
4864,9.728,2.58601
4865,9.73,2.59326
4866,9.732,2.58923
4867,9.734,2.58842
4868,9.736,2.59326
4869,9.738,2.59648
4870,9.74,2.59084
4871,9.742,2.60293
4872,9.744,2.58923
4873,9.746,2.59648
4874,9.748,2.60857
4875,9.75,2.60857
4876,9.752,2.62388
4877,9.754,2.62711
4878,9.756,2.62147
4879,9.758,2.63678
4880,9.76,2.62147
4881,9.762,2.62066
4882,9.764,2.62388
4883,9.766,2.6263
4884,9.768,2.62469
4885,9.77,2.62549
4886,9.772,2.61824
4887,9.774,2.6126
4888,9.776,2.6126
4889,9.778,2.60857
4890,9.78,2.62066
4891,9.782,2.61663
4892,9.784,2.62469
4893,9.786,2.62227
4894,9.788,2.62227
4895,9.79,2.63436
4896,9.792,2.62388
4897,9.794,2.61985
4898,9.796,2.62791
4899,9.798,2.64484
4900,9.8,2.65128
4901,9.802,2.65451
4902,9.804,2.6537
4903,9.806,2.65451
4904,9.808,2.65048
4905,9.81,2.63919
4906,9.812,2.64725
4907,9.814,2.65128
4908,9.816,2.65451
4909,9.818,2.65451
4910,9.82,2.65612
4911,9.822,2.65128
4912,9.824,2.64242
4913,9.826,2.64886
4914,9.828,2.65612
4915,9.83,2.65773
4916,9.832,2.66337
4917,9.834,2.66659
4918,9.836,2.66176
4919,9.838,2.66418
4920,9.84,2.6674
4921,9.842,2.66821
4922,9.844,2.67143
4923,9.846,2.67143
4924,9.848,2.66982
4925,9.85,2.6811
4926,9.852,2.67788
4927,9.854,2.67949
4928,9.856,2.6948
4929,9.858,2.68593
4930,9.86,2.68513
4931,9.862,2.69077
4932,9.864,2.68674
4933,9.866,2.69077
4934,9.868,2.68755
4935,9.87,2.69883
4936,9.872,2.69077
4937,9.874,2.68996
4938,9.876,2.69802
4939,9.878,2.69399
4940,9.88,2.69963
4941,9.882,2.69883
4942,9.884,2.69641
4943,9.886,2.69641
4944,9.888,2.70527
4945,9.89,2.71172
4946,9.892,2.70689
4947,9.894,2.7093
4948,9.896,2.7222
4949,9.898,2.72945
4950,9.9,2.71817
4951,9.902,2.73106
4952,9.904,2.73187
4953,9.906,2.73912
4954,9.908,2.74799
4955,9.91,2.73429
4956,9.912,2.74073
4957,9.914,2.7359
4958,9.916,2.73429
4959,9.918,2.73993
4960,9.92,2.74154
4961,9.922,2.74234
4962,9.924,2.74234
4963,9.926,2.72703
4964,9.928,2.73267
4965,9.93,2.73751
4966,9.932,2.74234
4967,9.934,2.75201
4968,9.936,2.74073
4969,9.938,2.74879
4970,9.94,2.75121
4971,9.942,2.75604
4972,9.944,2.76571
4973,9.946,2.74799
4974,9.948,2.75846
4975,9.95,2.76249
4976,9.952,2.76894
4977,9.954,2.78264
4978,9.956,2.78264
4979,9.958,2.79231
4980,9.96,2.79311
4981,9.962,2.81084
4982,9.964,2.79231
4983,9.966,2.7915
4984,9.968,2.80037
4985,9.97,2.79311
4986,9.972,2.80278
4987,9.974,2.80117
4988,9.976,2.80117
4989,9.978,2.79231
4990,9.98,2.79795
4991,9.982,2.79311
4992,9.984,2.79714
4993,9.986,2.79634
4994,9.988,2.81004
4995,9.99,2.80601
4996,9.992,2.80681
4997,9.994,2.79714
4998,9.996,2.80198
4999,9.998,2.80278
5000,10.0,2.81004
5001,10.002,2.81165
5002,10.004,2.81326
5003,10.006,2.81245
5004,10.008,2.80681
5005,10.01,2.81004
5006,10.012,2.81004
5007,10.014,2.80601
5008,10.016,2.8189
5009,10.018,2.84952
5010,10.02,2.82535
5011,10.022,2.81326
5012,10.024,3.05179
5013,10.026,2.79795
5014,10.028,2.79473
5015,10.03,2.78425
5016,10.032,2.80198
5017,10.034,2.80278
5018,10.036,2.8052
5019,10.038,2.80923
5020,10.04,2.80601
5021,10.042,2.80278
5022,10.044,2.81326
5023,10.046,2.83421
5024,10.048,2.79311
5025,10.05,2.80037
5026,10.052,2.8052
5027,10.054,2.80359
5028,10.056,2.81245
5029,10.058,2.79956
5030,10.06,2.79795
5031,10.062,2.79473
5032,10.064,2.79553
5033,10.066,2.79956
5034,10.068,2.79956
5035,10.07,2.78908
5036,10.072,2.79311
5037,10.074,2.80359
5038,10.076,2.77297
5039,10.078,2.76733
5040,10.08,2.76974
5041,10.082,2.76733
5042,10.084,2.7641
5043,10.086,2.77297
5044,10.088,2.76249
5045,10.09,2.77297
5046,10.092,2.76491
5047,10.094,2.77136
5048,10.096,2.76733
5049,10.098,2.77458
5050,10.1,2.80037
5051,10.102,2.77377
5052,10.104,2.75604
5053,10.106,2.76007
5054,10.108,2.76652
5055,10.11,2.7641
5056,10.112,2.76974
5057,10.114,2.7633
5058,10.116,2.75363
5059,10.118,2.73832
5060,10.12,2.73348
5061,10.122,2.73026
5062,10.124,2.72623
5063,10.126,2.72864
5064,10.128,2.72542
5065,10.13,2.71656
5066,10.132,2.71172
5067,10.134,2.70286
5068,10.136,2.68916
5069,10.138,2.68996
5070,10.14,2.69077
5071,10.142,2.68513
5072,10.144,2.67062
5073,10.146,2.67949
5074,10.148,2.67788
5075,10.15,2.67304
5076,10.152,2.67062
5077,10.154,2.66337
5078,10.156,2.67546
5079,10.158,2.65934
5080,10.16,2.65128
5081,10.162,2.65612
5082,10.164,2.64484
5083,10.166,2.64
5084,10.168,2.64886
5085,10.17,2.63194
5086,10.172,2.62227
5087,10.174,2.6263
5088,10.176,2.61985
5089,10.178,2.61341
5090,10.18,2.5989
5091,10.182,2.59648
5092,10.184,2.58923
5093,10.186,2.59084
5094,10.188,2.58762
5095,10.19,2.58601
5096,10.192,2.58278
5097,10.194,2.58762
5098,10.196,2.57956
5099,10.198,2.58117
5100,10.2,2.57392
5101,10.202,2.57714
5102,10.204,2.56828
5103,10.206,2.57392
5104,10.208,2.56667
5105,10.21,2.56747
5106,10.212,2.56989
5107,10.214,2.55861
5108,10.216,2.54733
5109,10.218,2.5441
5110,10.22,2.5433
5111,10.222,2.53604
5112,10.224,2.53443
5113,10.226,2.52476
5114,10.228,2.52879
5115,10.23,2.52073
5116,10.232,2.51832
5117,10.234,2.5167
5118,10.236,2.50059
5119,10.238,2.503
5120,10.24,2.49414
5121,10.242,2.50462
5122,10.244,2.50139
5123,10.246,2.49253
5124,10.248,2.49333
5125,10.25,2.48366
5126,10.252,2.49011
5127,10.254,2.48689
5128,10.256,2.48366
5129,10.258,2.47722
5130,10.26,2.48447
5131,10.262,2.48608
5132,10.264,2.47963
5133,10.266,2.51509
5134,10.268,2.48447
5135,10.27,2.47802
5136,10.272,2.45143
5137,10.274,2.48608
5138,10.276,2.4748
5139,10.278,2.46352
5140,10.28,2.46674
5141,10.282,2.46029
5142,10.284,2.46674
5143,10.286,2.46674
5144,10.288,2.46996
5145,10.29,2.4619
5146,10.292,2.4619
5147,10.294,2.49656
5148,10.296,2.46432
5149,10.298,2.46593
5150,10.3,2.44015
5151,10.302,2.45062
5152,10.304,2.45626
5153,10.306,2.46593
5154,10.308,2.47399
5155,10.31,2.47722
5156,10.312,2.46916
5157,10.314,2.4748
5158,10.316,2.47319
5159,10.318,2.47641
5160,10.32,2.47399
5161,10.322,2.49736
5162,10.324,2.45868
5163,10.326,2.45626
5164,10.328,2.45546
5165,10.33,2.46755
5166,10.332,2.45385
5167,10.334,2.46352
5168,10.336,2.45223
5169,10.338,2.45062
5170,10.34,2.45385
5171,10.342,2.44821
5172,10.344,2.45868
5173,10.346,2.45465
5174,10.348,2.45304
5175,10.35,2.44901
5176,10.352,2.44821
5177,10.354,2.44418
5178,10.356,2.45143
5179,10.358,2.46352
5180,10.36,2.45143
5181,10.362,2.45062
5182,10.364,2.4619
5183,10.366,2.45788
5184,10.368,2.47077
5185,10.37,2.45546
5186,10.372,2.45868
5187,10.374,2.4611
5188,10.376,2.48769
5189,10.378,2.45788
5190,10.38,2.46593
5191,10.382,2.45062
5192,10.384,2.44498
5193,10.386,2.44498
5194,10.388,2.44176
5195,10.39,2.43612
5196,10.392,2.45062
5197,10.394,2.44095
5198,10.396,2.44337
5199,10.398,2.43692
5200,10.4,2.43209
5201,10.402,2.43612
5202,10.404,2.44821
5203,10.406,2.45788
5204,10.408,2.46352
5205,10.41,2.45949
5206,10.412,2.46593
5207,10.414,2.46916
5208,10.416,2.46916
5209,10.418,2.46674
5210,10.42,2.46835
5211,10.422,2.46029
5212,10.424,2.46352
5213,10.426,2.46513
5214,10.428,2.46432
5215,10.43,2.46916
5216,10.432,2.45868
5217,10.434,2.45546
5218,10.436,2.46432
5219,10.438,2.46432
5220,10.44,2.4619
5221,10.442,2.46674
5222,10.444,2.46916
5223,10.446,2.46996
5224,10.448,2.4611
5225,10.45,2.46029
5226,10.452,2.46755
5227,10.454,2.47077
5228,10.456,2.45546
5229,10.458,2.47883
5230,10.46,2.46352
5231,10.462,2.45868
5232,10.464,2.46432
5233,10.466,2.45304
5234,10.468,2.45788
5235,10.47,2.46271
5236,10.472,2.45143
5237,10.474,2.4474
5238,10.476,2.44659
5239,10.478,2.44015
5240,10.48,2.44498
5241,10.482,2.42564
5242,10.484,2.4337
5243,10.486,2.43048
5244,10.488,2.42403
5245,10.49,2.42886
5246,10.492,2.42564
5247,10.494,2.42806
5248,10.496,2.43128
5249,10.498,2.44176
5250,10.5,2.44579
5251,10.502,2.45062
5252,10.504,2.45385
5253,10.506,2.46352
5254,10.508,2.46755
5255,10.51,2.46432
5256,10.512,2.45385
5257,10.514,2.46271
5258,10.516,2.45788
5259,10.518,2.45868
5260,10.52,2.47883
5261,10.522,2.48044
5262,10.524,2.46916
5263,10.526,2.47158
5264,10.528,2.46271
5265,10.53,2.46755
5266,10.532,2.45304
5267,10.534,2.45223
5268,10.536,2.45465
5269,10.538,2.45707
5270,10.54,2.45223
5271,10.542,2.44982
5272,10.544,2.45385
5273,10.546,2.46674
5274,10.548,2.45385
5275,10.55,2.45788
5276,10.552,2.44982
5277,10.554,2.44821
5278,10.556,2.45304
5279,10.558,2.45868
5280,10.56,2.45546
5281,10.562,2.43531
5282,10.564,2.45546
5283,10.566,2.45788
5284,10.568,2.45868
5285,10.57,2.45788
5286,10.572,2.45626
5287,10.574,2.45143
5288,10.576,2.45465
5289,10.578,2.45223
5290,10.58,2.45385
5291,10.582,2.44498
5292,10.584,2.42161
5293,10.586,2.42564
5294,10.588,2.42322
5295,10.59,2.42645
5296,10.592,2.42322
5297,10.594,2.42322
5298,10.596,2.41839
5299,10.598,2.42403
5300,10.6,2.41597
5301,10.602,2.42403
5302,10.604,2.42
5303,10.606,2.42161
5304,10.608,2.42403
5305,10.61,2.43048
5306,10.612,2.43128
5307,10.614,2.43209
5308,10.616,2.42967
5309,10.618,2.42806
5310,10.62,2.42886
5311,10.622,2.43289
5312,10.624,2.42645
5313,10.626,2.43289
5314,10.628,2.42
5315,10.63,2.42725
5316,10.632,2.41516
5317,10.634,2.42161
5318,10.636,2.43128
5319,10.638,2.42564
5320,10.64,2.42806
5321,10.642,2.41839
5322,10.644,2.42242
5323,10.646,2.43289
5324,10.648,2.43531
5325,10.65,2.43209
5326,10.652,2.42645
5327,10.654,2.43531
5328,10.656,2.43612
5329,10.658,2.43209
5330,10.66,2.44418
5331,10.662,2.44176
5332,10.664,2.43451
5333,10.666,2.44176
5334,10.668,2.44095
5335,10.67,2.44256
5336,10.672,2.43934
5337,10.674,2.43048
5338,10.676,2.42886
5339,10.678,2.42161
5340,10.68,2.42
5341,10.682,2.41839
5342,10.684,2.42403
5343,10.686,2.40711
5344,10.688,2.41033
5345,10.69,2.39502
5346,10.692,2.39905
5347,10.694,2.40147
5348,10.696,2.40872
5349,10.698,2.41114
5350,10.7,2.40147
5351,10.702,2.40549
5352,10.704,2.41839
5353,10.706,2.41194
5354,10.708,2.42081
5355,10.71,2.4337
5356,10.712,2.41758
5357,10.714,2.41839
5358,10.716,2.42725
5359,10.718,2.42886
5360,10.72,2.42322
5361,10.722,2.42403
5362,10.724,2.42242
5363,10.726,2.41839
5364,10.728,2.42161
5365,10.73,2.42
5366,10.732,2.42081
5367,10.734,2.41033
5368,10.736,2.41194
5369,10.738,2.40388
5370,10.74,2.40549
5371,10.742,2.40872
5372,10.744,2.40952
5373,10.746,2.41033
5374,10.748,2.41033
5375,10.75,2.41275
5376,10.752,2.40388
5377,10.754,2.41033
5378,10.756,2.40147
5379,10.758,2.41355
5380,10.76,2.4063
5381,10.762,2.41436
5382,10.764,2.42484
5383,10.766,2.41839
5384,10.768,2.41275
5385,10.77,2.41194
5386,10.772,2.40549
5387,10.774,2.41758
5388,10.776,2.41436
5389,10.778,2.4063
5390,10.78,2.41275
5391,10.782,2.40147
5392,10.784,2.40388
5393,10.786,2.39421
5394,10.788,2.40549
5395,10.79,2.40147
5396,10.792,2.40469
5397,10.794,2.40147
5398,10.796,2.40147
5399,10.798,2.40147
5400,10.8,2.40388
5401,10.802,2.40791
5402,10.804,2.40227
5403,10.806,2.41275
5404,10.808,2.42484
5405,10.81,2.41597
5406,10.812,2.41758
5407,10.814,2.41758
5408,10.816,2.41919
5409,10.818,2.42725
5410,10.82,2.42806
5411,10.822,2.42161
5412,10.824,2.43451
5413,10.826,2.43289
5414,10.828,2.42322
5415,10.83,2.42725
5416,10.832,2.4337
5417,10.834,2.42886
5418,10.836,2.42725
5419,10.838,2.40872
5420,10.84,2.42
5421,10.842,2.41597
5422,10.844,2.40952
5423,10.846,2.42242
5424,10.848,2.41758
5425,10.85,2.43209
5426,10.852,2.42081
5427,10.854,2.42
5428,10.856,2.42725
5429,10.858,2.42886
5430,10.86,2.43612
5431,10.862,2.42806
5432,10.864,2.42564
5433,10.866,2.42806
5434,10.868,2.42564
5435,10.87,2.42322
5436,10.872,2.41033
5437,10.874,2.41919
5438,10.876,2.39985
5439,10.878,2.38615
5440,10.88,2.39502
5441,10.882,2.40388
5442,10.884,2.41033
5443,10.886,2.41678
5444,10.888,2.42564
5445,10.89,2.41114
5446,10.892,2.40952
5447,10.894,2.40549
5448,10.896,2.39099
5449,10.898,2.38938
5450,10.9,2.40711
5451,10.902,2.40549
5452,10.904,2.40711
5453,10.906,2.42
5454,10.908,2.40388
5455,10.91,2.40711
5456,10.912,2.42403
5457,10.914,2.41516
5458,10.916,2.42403
5459,10.918,2.42564
5460,10.92,2.43209
5461,10.922,2.42725
5462,10.924,2.42161
5463,10.926,2.42886
5464,10.928,2.43209
5465,10.93,2.43128
5466,10.932,2.41839
5467,10.934,2.42081
5468,10.936,2.41919
5469,10.938,2.41516
5470,10.94,2.42081
5471,10.942,2.42806
5472,10.944,2.43209
5473,10.946,2.42161
5474,10.948,2.40711
5475,10.95,2.41275
5476,10.952,2.41355
5477,10.954,2.42242
5478,10.956,2.42403
5479,10.958,2.43773
5480,10.96,2.42886
5481,10.962,2.43531
5482,10.964,2.44176
5483,10.966,2.43451
5484,10.968,2.43612
5485,10.97,2.43612
5486,10.972,2.44901
5487,10.974,2.42967
5488,10.976,2.42886
5489,10.978,2.42967
5490,10.98,2.43773
5491,10.982,2.43209
5492,10.984,2.43289
5493,10.986,2.42
5494,10.988,2.41678
5495,10.99,2.42806
5496,10.992,2.43289
5497,10.994,2.42
5498,10.996,2.42161
5499,10.998,2.41436
5500,11.0,2.42403
5501,11.002,2.41516
5502,11.004,2.42081
5503,11.006,2.41678
5504,11.008,2.41839
5505,11.01,2.42484
5506,11.012,2.42967
5507,11.014,2.42725
5508,11.016,2.42806
5509,11.018,2.43853
5510,11.02,2.43531
5511,11.022,2.44579
5512,11.024,2.42645
5513,11.026,2.42645
5514,11.028,2.43128
5515,11.03,2.41839
5516,11.032,2.42403
5517,11.034,2.42161
5518,11.036,2.42242
5519,11.038,2.41919
5520,11.04,2.41758
5521,11.042,2.41516
5522,11.044,2.42242
5523,11.046,2.42645
5524,11.048,2.40388
5525,11.05,2.41355
5526,11.052,2.40952
5527,11.054,2.43048
5528,11.056,2.41033
5529,11.058,2.43209
5530,11.06,2.41758
5531,11.062,2.42161
5532,11.064,2.42403
5533,11.066,2.42564
5534,11.068,2.42564
5535,11.07,2.42322
5536,11.072,2.43612
5537,11.074,2.42806
5538,11.076,2.42322
5539,11.078,2.43128
5540,11.08,2.42081
5541,11.082,2.42725
5542,11.084,2.42
5543,11.086,2.41758
5544,11.088,2.41033
5545,11.09,2.41678
5546,11.092,2.42403
5547,11.094,2.42484
5548,11.096,2.41919
5549,11.098,2.42161
5550,11.1,2.42322
5551,11.102,2.42484
5552,11.104,2.43128
5553,11.106,2.42806
5554,11.108,2.43289
5555,11.11,2.42886
5556,11.112,2.42322
5557,11.114,2.42725
5558,11.116,2.43209
5559,11.118,2.43692
5560,11.12,2.44095
5561,11.122,2.45062
5562,11.124,2.43451
5563,11.126,2.42725
5564,11.128,2.43612
5565,11.13,2.42322
5566,11.132,2.40872
5567,11.134,2.39985
5568,11.136,2.41436
5569,11.138,2.40147
5570,11.14,2.40469
5571,11.142,2.40872
5572,11.144,2.41678
5573,11.146,2.41114
5574,11.148,2.41033
5575,11.15,2.41919
5576,11.152,2.42242
5577,11.154,2.42645
5578,11.156,2.42967
5579,11.158,2.42
5580,11.16,2.43209
5581,11.162,2.43853
5582,11.164,2.44176
5583,11.166,2.43531
5584,11.168,2.42886
5585,11.17,2.44337
5586,11.172,2.44015
5587,11.174,2.44901
5588,11.176,2.44015
5589,11.178,2.44418
5590,11.18,2.44256
5591,11.182,2.45304
5592,11.184,2.45385
5593,11.186,2.45788
5594,11.188,2.45788
5595,11.19,2.46432
5596,11.192,2.4619
5597,11.194,2.45626
5598,11.196,2.44982
5599,11.198,2.44015
5600,11.2,2.45546
5601,11.202,2.45385
5602,11.204,2.46593
5603,11.206,2.47158
5604,11.208,2.46432
5605,11.21,2.47399
5606,11.212,2.46674
5607,11.214,2.46996
5608,11.216,2.47077
5609,11.218,2.47963
5610,11.22,2.46674
5611,11.222,2.4611
5612,11.224,2.4748
5613,11.226,2.46593
5614,11.228,2.46593
5615,11.23,2.45788
5616,11.232,2.45788
5617,11.234,2.44498
5618,11.236,2.44256
5619,11.238,2.44337
5620,11.24,2.44901
5621,11.242,2.44659
5622,11.244,2.44176
5623,11.246,2.45143
5624,11.248,2.45707
5625,11.25,2.46029
5626,11.252,2.46996
5627,11.254,2.45385
5628,11.256,2.45062
5629,11.258,2.45465
5630,11.26,2.45546
5631,11.262,2.45223
5632,11.264,2.45949
5633,11.266,2.46996
5634,11.268,2.4756
5635,11.27,2.4885
5636,11.272,2.49575
5637,11.274,2.50139
5638,11.276,2.49897
5639,11.278,2.52073
5640,11.28,2.53443
5641,11.282,2.53201
5642,11.284,2.52879
5643,11.286,2.51026
5644,11.288,2.52315
5645,11.29,2.5167
5646,11.292,2.52718
5647,11.294,2.52799
5648,11.296,2.52234
5649,11.298,2.5304
5650,11.3,2.53604
5651,11.302,2.53524
5652,11.304,2.54169
5653,11.306,2.53121
5654,11.308,2.52799
5655,11.31,2.53604
5656,11.312,2.52879
5657,11.314,2.53121
5658,11.316,2.53846
5659,11.318,2.5441
5660,11.32,2.5304
5661,11.322,2.52879
5662,11.324,2.53766
5663,11.326,2.53121
5664,11.328,2.5304
5665,11.33,2.53201
5666,11.332,2.5296
5667,11.334,2.5296
5668,11.336,2.53121
5669,11.338,2.53766
5670,11.34,2.5296
5671,11.342,2.52154
5672,11.344,2.52234
5673,11.346,2.51267
5674,11.348,2.51993
5675,11.35,2.503
5676,11.352,2.50945
5677,11.354,2.5022
5678,11.356,2.47963
5679,11.358,2.4893
5680,11.36,2.49495
5681,11.362,2.50945
5682,11.364,2.51026
5683,11.366,2.50784
5684,11.368,2.49817
5685,11.37,2.48608
5686,11.372,2.49656
5687,11.374,2.50542
5688,11.376,2.49656
5689,11.378,2.49333
5690,11.38,2.48286
5691,11.382,2.4748
5692,11.384,2.46916
5693,11.386,2.46432
5694,11.388,2.46674
5695,11.39,2.46271
5696,11.392,2.46432
5697,11.394,2.46593
5698,11.396,2.46432
5699,11.398,2.45788
5700,11.4,2.45949
5701,11.402,2.46352
5702,11.404,2.45223
5703,11.406,2.44176
5704,11.408,2.44498
5705,11.41,2.44337
5706,11.412,2.44337
5707,11.414,2.44337
5708,11.416,2.45062
5709,11.418,2.44015
5710,11.42,2.43773
5711,11.422,2.43853
5712,11.424,2.43692
5713,11.426,2.43128
5714,11.428,2.43934
5715,11.43,2.42725
5716,11.432,2.41355
5717,11.434,2.41516
5718,11.436,2.40952
5719,11.438,2.39985
5720,11.44,2.39905
5721,11.442,2.39018
5722,11.444,2.38293
5723,11.446,2.38132
5724,11.448,2.3789
5725,11.45,2.36359
5726,11.452,2.37326
5727,11.454,2.38132
5728,11.456,2.37648
5729,11.458,2.39502
5730,11.46,2.38938
5731,11.462,2.39018
5732,11.464,2.39663
5733,11.466,2.4063
5734,11.468,2.39985
5735,11.47,2.40388
5736,11.472,2.41114
5737,11.474,2.40308
5738,11.476,2.39421
5739,11.478,2.40147
5740,11.48,2.39905
5741,11.482,2.39421
5742,11.484,2.39421
5743,11.486,2.38696
5744,11.488,2.39018
5745,11.49,2.39018
5746,11.492,2.38615
5747,11.494,2.39099
5748,11.496,2.39099
5749,11.498,2.39341
5750,11.5,2.38857
5751,11.502,2.37648
5752,11.504,2.37487
5753,11.506,2.38615
5754,11.508,2.38696
5755,11.51,2.39099
5756,11.512,2.38938
5757,11.514,2.38938
5758,11.516,2.39018
5759,11.518,2.38535
5760,11.52,2.39018
5761,11.522,2.39018
5762,11.524,2.38938
5763,11.526,2.39985
5764,11.528,2.40147
5765,11.53,2.39824
5766,11.532,2.38696
5767,11.534,2.38615
5768,11.536,2.38615
5769,11.538,2.38696
5770,11.54,2.38696
5771,11.542,2.38615
5772,11.544,2.38454
5773,11.546,2.3789
5774,11.548,2.36762
5775,11.55,2.37245
5776,11.552,2.38293
5777,11.554,2.38293
5778,11.556,2.37648
5779,11.558,2.38777
5780,11.56,2.38777
5781,11.562,2.39582
5782,11.564,2.39502
5783,11.566,2.40952
5784,11.568,2.39744
5785,11.57,2.39582
5786,11.572,2.40227
5787,11.574,2.40227
5788,11.576,2.40952
5789,11.578,2.40147
5790,11.58,2.41758
5791,11.582,2.40549
5792,11.584,2.39824
5793,11.586,2.39018
5794,11.588,2.39663
5795,11.59,2.39341
5796,11.592,2.39663
5797,11.594,2.39985
5798,11.596,2.38857
5799,11.598,2.3926
5800,11.6,2.38212
5801,11.602,2.38293
5802,11.604,2.3926
5803,11.606,2.38938
5804,11.608,2.39905
5805,11.61,2.40147
5806,11.612,2.40066
5807,11.614,2.40711
5808,11.616,2.39744
5809,11.618,2.40388
5810,11.62,2.39663
5811,11.622,2.39744
5812,11.624,2.39663
5813,11.626,2.40469
5814,11.628,2.40711
5815,11.63,2.39744
5816,11.632,2.40227
5817,11.634,2.40227
5818,11.636,2.40872
5819,11.638,2.39341
5820,11.64,2.38696
5821,11.642,2.39663
5822,11.644,2.40711
5823,11.646,2.40469
5824,11.648,2.39341
5825,11.65,2.40388
5826,11.652,2.39985
5827,11.654,2.40066
5828,11.656,2.39985
5829,11.658,2.39341
5830,11.66,2.40147
5831,11.662,2.40066
5832,11.664,2.41597
5833,11.666,2.41678
5834,11.668,2.42886
5835,11.67,2.44256
5836,11.672,2.46029
5837,11.674,2.47077
5838,11.676,2.46835
5839,11.678,2.46674
5840,11.68,2.45385
5841,11.682,2.46432
5842,11.684,2.46916
5843,11.686,2.46029
5844,11.688,2.46916
5845,11.69,2.47158
5846,11.692,2.49092
5847,11.694,2.51348
5848,11.696,2.54894
5849,11.698,2.57714
5850,11.7,2.58278
5851,11.702,2.59084
5852,11.704,2.63194
5853,11.706,2.66015
5854,11.708,2.69883
5855,11.71,2.74879
5856,11.712,2.8052
5857,11.714,2.86161
5858,11.716,2.9293
5859,11.718,2.99538
5860,11.72,3.04857
5861,11.722,3.11626
5862,11.724,3.1767
5863,11.726,3.25648
5864,11.728,3.29597
5865,11.73,3.29919
5866,11.732,3.3
5867,11.734,3.3
5868,11.736,3.3
5869,11.738,3.3
5870,11.74,3.3
5871,11.742,3.3
5872,11.744,3.3
5873,11.746,3.3
5874,11.748,3.3
5875,11.75,3.29839
5876,11.752,3.25971
5877,11.754,3.22828
5878,11.756,3.2033
5879,11.758,3.16945
5880,11.76,3.07678
5881,11.762,2.97201
5882,11.764,2.87773
5883,11.766,2.74557
5884,11.768,2.62066
5885,11.77,2.53363
5886,11.772,2.43048
5887,11.774,2.33861
5888,11.776,2.21531
5889,11.778,2.10733
5890,11.78,2.05817
5891,11.782,2.03158
5892,11.784,1.97033
5893,11.786,1.90103
5894,11.788,1.87363
5895,11.79,1.84784
5896,11.792,1.8148
5897,11.794,1.79385
5898,11.796,1.78418
5899,11.798,1.75516
5900,11.8,1.72938
5901,11.802,1.67458
5902,11.804,1.63267
5903,11.806,1.60689
5904,11.808,1.60125
5905,11.81,1.63267
5906,11.812,1.65685
5907,11.814,1.69553
5908,11.816,1.75516
5909,11.818,1.80271
5910,11.82,1.85429
5911,11.822,1.91956
5912,11.824,1.96952
5913,11.826,2.04044
5914,11.828,2.07026
5915,11.83,2.1033
5916,11.832,2.15487
5917,11.834,2.20403
5918,11.836,2.25802
5919,11.838,2.30718
5920,11.84,2.34989
5921,11.842,2.40791
5922,11.844,2.43853
5923,11.846,2.45707
5924,11.848,2.48286
5925,11.85,2.47963
5926,11.852,2.47641
5927,11.854,2.46432
5928,11.856,2.46352
5929,11.858,2.4748
5930,11.86,2.4756
5931,11.862,2.47722
5932,11.864,2.47238
5933,11.866,2.47963
5934,11.868,2.48366
5935,11.87,2.48689
5936,11.872,2.49253
5937,11.874,2.49656
5938,11.876,2.51026
5939,11.878,2.50864
5940,11.88,2.50945
5941,11.882,2.51026
5942,11.884,2.49897
5943,11.886,2.50462
5944,11.888,2.51267
5945,11.89,2.49897
5946,11.892,2.49897
5947,11.894,2.49253
5948,11.896,2.49172
5949,11.898,2.4893
5950,11.9,2.50703
5951,11.902,2.50462
5952,11.904,2.48689
5953,11.906,2.49575
5954,11.908,2.50059
5955,11.91,2.49172
5956,11.912,2.4893
5957,11.914,2.49978
5958,11.916,2.49897
5959,11.918,2.50864
5960,11.92,2.50059
5961,11.922,2.49817
5962,11.924,2.49656
5963,11.926,2.49978
5964,11.928,2.50462
5965,11.93,2.51026
5966,11.932,2.50462
5967,11.934,2.51267
5968,11.936,2.49656
5969,11.938,2.49897
5970,11.94,2.49495
5971,11.942,2.49253
5972,11.944,2.48366
5973,11.946,2.49172
5974,11.948,2.49575
5975,11.95,2.5022
5976,11.952,2.49575
5977,11.954,2.49011
5978,11.956,2.49333
5979,11.958,2.49092
5980,11.96,2.51751
5981,11.962,2.51187
5982,11.964,2.51912
5983,11.966,2.5159
5984,11.968,2.5167
5985,11.97,2.52718
5986,11.972,2.52154
5987,11.974,2.5296
5988,11.976,2.5296
5989,11.978,2.5441
5990,11.98,2.52476
5991,11.982,2.52476
5992,11.984,2.53363
5993,11.986,2.51912
5994,11.988,2.52879
5995,11.99,2.50542
5996,11.992,2.51267
5997,11.994,2.51187
5998,11.996,2.52073
5999,11.998,2.51912
6000,12.0,2.48044
6001,12.002,2.51832
6002,12.004,2.53121
6003,12.006,2.51348
6004,12.008,2.52154
6005,12.01,2.53201
6006,12.012,2.53443
6007,12.014,2.52476
6008,12.016,2.53766
6009,12.018,2.53201
6010,12.02,2.54007
6011,12.022,2.53927
6012,12.024,2.54249
6013,12.026,2.54813
6014,12.028,2.55297
6015,12.03,2.54571
6016,12.032,2.54733
6017,12.034,2.54169
6018,12.036,2.54894
6019,12.038,2.54169
6020,12.04,2.53604
6021,12.042,2.53524
6022,12.044,2.52476
6023,12.046,2.52557
6024,12.048,2.52073
6025,12.05,2.51751
6026,12.052,2.5304
6027,12.054,2.53524
6028,12.056,2.53121
6029,12.058,2.53604
6030,12.06,2.53201
6031,12.062,2.53604
6032,12.064,2.53201
6033,12.066,2.53524
6034,12.068,2.54894
6035,12.07,2.54652
6036,12.072,2.54571
6037,12.074,2.5441
6038,12.076,2.54894
6039,12.078,2.56344
6040,12.08,2.557
6041,12.082,2.55861
6042,12.084,2.56264
6043,12.086,2.57231
6044,12.088,2.56747
6045,12.09,2.5707
6046,12.092,2.56344
6047,12.094,2.56908
6048,12.096,2.557
6049,12.098,2.55377
6050,12.1,2.56586
6051,12.102,2.5707
6052,12.104,2.56908
6053,12.106,2.56747
6054,12.108,2.56828
6055,12.11,2.56908
6056,12.112,2.56828
6057,12.114,2.58278
6058,12.116,2.58681
6059,12.118,2.59004
6060,12.12,2.58762
6061,12.122,2.60615
6062,12.124,2.59729
6063,12.126,2.59245
6064,12.128,2.5989
6065,12.13,2.60293
6066,12.132,2.60615
6067,12.134,2.60132
6068,12.136,2.59407
6069,12.138,2.5989
6070,12.14,2.5981
6071,12.142,2.59245
6072,12.144,2.59165
6073,12.146,2.60051
6074,12.148,2.60132
6075,12.15,2.59568
6076,12.152,2.58359
6077,12.154,2.59084
6078,12.156,2.59165
6079,12.158,2.59165
6080,12.16,2.60051
6081,12.162,2.60132
6082,12.164,2.60051
6083,12.166,2.61179
6084,12.168,2.61341
6085,12.17,2.62791
6086,12.172,2.61905
6087,12.174,2.62066
6088,12.176,2.61663
6089,12.178,2.62791
6090,12.18,2.63194
6091,12.182,2.63516
6092,12.184,2.64081
6093,12.186,2.63597
6094,12.188,2.63355
6095,12.19,2.63114
6096,12.192,2.62711
6097,12.194,2.62308
6098,12.196,2.62388
6099,12.198,2.61341
6100,12.2,2.62147
